ID,mbp,sbp,dbp,cp,sut,dt,dt10,st10,st10_p_dt10,st10_d_dt10,dt25,st25,st25_p_dt25,st25_d_dt25,dt33,st33,st33_p_dt33,st33_d_dt33,dt50,st50,st50_p_dt50,st50_d_dt50,dt66,st66,st66_p_dt66,st66_d_dt66,dt75,st75,st75_p_dt75,st75_d_dt75
34040000,93.1332029223,129.458115584,74.9707465917,0.7685,0.2015,0.537,0.0165,0.1895,0.206,0.0869182900433,0.0165,0.1775,0.194,0.0928706709957,0.0165,0.1775,0.194,0.0928706709957,0.0165,0.1775,0.194,0.0928706709957,0.0165,0.1775,0.194,0.0928706709957,0.0165,0.1775,0.194,0.0928706709957
34040000,93.9133222757,130.47978325,75.6300917886,0.767,0.1985,0.565,0.0135,0.1925,0.206,0.070027173913,0.0135,0.1925,0.206,0.070027173913,0.0135,0.1925,0.206,0.070027173913,0.0135,0.1925,0.206,0.070027173913,0.0135,0.1925,0.206,0.070027173913,0.0135,0.1925,0.206,0.070027173913
34040000,94.0895860051,129.427225712,76.4207661518,0.7195,0.217,0.508,0.011,0.1905,0.2015,0.0518655070799,0.011,0.1785,0.1895,0.0567997176062,0.011,0.1785,0.1895,0.0567997176062,0.011,0.1785,0.1895,0.0567997176062,0.011,0.1785,0.1895,0.0567997176062,0.008,0.1785,0.1865,0.0507513305094
34040000,95.6802441929,134.147920732,76.4464059232,0.767,0.2065,0.56,0.0185,0.1885,0.207,0.10048951049,0.0185,0.1885,0.207,0.10048951049,0.0185,0.1885,0.207,0.10048951049,0.0185,0.1885,0.207,0.10048951049,0.0185,0.1885,0.207,0.10048951049,0.0185,0.1875,0.206,0.100890151515
34040000,96.03980296,133.313237212,77.403085834,0.749,0.2995,0.551,0.0495,0.2975,0.347,0.149444444444,0.0495,0.2975,0.347,0.149444444444,0.0495,0.2975,0.347,0.149444444444,0.0255,0.2975,0.323,0.0812626262626,0.0255,0.2975,0.323,0.0812626262626,0.0255,0.2975,0.323,0.0812626262626
34040000,96.2943371788,135.409048572,76.7369814823,0.7475,0.208,0.5435,0.029,0.2035,0.2325,0.149945652174,0.029,0.2035,0.2325,0.149945652174,0.029,0.2035,0.2325,0.149945652174,0.029,0.2035,0.2325,0.149945652174,0.013,0.2035,0.2165,0.0666123188406,0.013,0.2035,0.2165,0.0666123188406
34040000,96.4211760695,134.373722695,77.4449027566,0.731,0.221,0.44,0.0225,0.2105,0.233,0.105359629104,0.0225,0.2105,0.233,0.105359629104,0.0225,0.2105,0.233,0.105359629104,0.0225,0.2105,0.233,0.105359629104,0.0225,0.2105,0.233,0.105359629104,0.0225,0.2105,0.233,0.105359629104
34040000,97.1750418429,136.805085617,77.3600199557,0.767,0.2065,0.5425,0.032,0.202,0.234,0.158164251208,0.032,0.202,0.234,0.158164251208,0.032,0.202,0.234,0.158164251208,0.032,0.202,0.234,0.158164251208,0.032,0.202,0.234,0.158164251208,0.032,0.202,0.234,0.158164251208
34040000,97.3201893061,136.245010387,77.8577787656,0.724,0.214,0.516,0.025,0.2085,0.2335,0.119766698818,0.025,0.2085,0.2335,0.119766698818,0.025,0.2085,0.2335,0.119766698818,0.025,0.2065,0.2315,0.120535929588,0.025,0.2065,0.2315,0.120535929588,0.025,0.2065,0.2315,0.120535929588
34040000,97.3951317496,135.347383267,78.4190059906,0.7515,0.2075,0.5585,0.0245,0.1975,0.222,0.121235431235,0.0235,0.1965,0.22,0.116645130232,0.0235,0.1965,0.22,0.116645130232,0.0225,0.1965,0.219,0.111837437924,0.0225,0.1965,0.219,0.111837437924,0.0145,0.1965,0.211,0.0733758994629
34040000,97.5587599031,134.643523607,79.0163780512,0.7465,0.277,0.4305,0.0155,0.277,0.2925,0.0584652133456,0.0155,0.277,0.2925,0.0584652133456,0.0155,0.277,0.2925,0.0584652133456,0.0155,0.269,0.2845,0.0595004100329,0.0155,0.269,0.2845,0.0595004100329,0.0155,0.253,0.2685,0.0642793825538
34040000,97.6285662384,136.634275852,78.1257114316,0.744,0.2395,0.4675,0.0125,0.239,0.2515,0.0592986874237,0.0125,0.2385,0.251,0.059525136699,0.0125,0.2385,0.251,0.059525136699,0.0125,0.2305,0.243,0.0633130154869,0.0125,0.2025,0.215,0.0658219760604,0.0125,0.2025,0.215,0.0658219760604
34040000,97.8458241933,136.216017968,78.660727306,0.7075,0.309,0.4885,0.024,0.294,0.318,0.0980203864127,0.023,0.294,0.317,0.092585603804,0.023,0.29,0.313,0.092862458732,0.023,0.29,0.313,0.092862458732,0.023,0.29,0.313,0.092862458732,0.023,0.29,0.313,0.092862458732
34040000,98.2354601864,137.882200209,78.4120901749,0.766,0.1935,0.537,0.0205,0.1925,0.213,0.106588628763,0.0205,0.192,0.2125,0.106796962096,0.0205,0.192,0.2125,0.106796962096,0.0205,0.192,0.2125,0.106796962096,0.0205,0.192,0.2125,0.106796962096,0.0205,0.192,0.2125,0.106796962096
34040000,98.4133700823,138.719311837,78.2603992048,0.751,0.2165,0.5295,0.009,0.2025,0.2115,0.043741638796,0.009,0.2025,0.2115,0.043741638796,0.009,0.2025,0.2115,0.043741638796,0.009,0.1945,0.2035,0.046866638796,0.009,0.1945,0.2035,0.046866638796,0.009,0.194,0.203,0.0469708054627
34040000,98.755907951,138.223151405,79.0222862238,0.759,0.2215,0.5465,0.018,0.21,0.228,0.0905487804878,0.018,0.21,0.228,0.0905487804878,0.018,0.21,0.228,0.0905487804878,0.0155,0.21,0.2255,0.0780487804878,0.0155,0.21,0.2255,0.0780487804878,0.0155,0.21,0.2255,0.0780487804878
34040000,98.9341912902,139.720002254,78.5412858082,0.753,0.2065,0.548,0.0375,0.194,0.2315,0.198816541249,0.0375,0.194,0.2315,0.198816541249,0.0375,0.194,0.2315,0.198816541249,0.0375,0.194,0.2315,0.198816541249,0.0375,0.194,0.2315,0.198816541249,0.0375,0.194,0.2315,0.198816541249
34040000,98.9933430976,138.766643571,79.1066928609,0.748,0.2,0.543,0.021,0.1865,0.2075,0.111824494949,0.021,0.1865,0.2075,0.111824494949,0.013,0.1865,0.1995,0.0718244949495,0.013,0.1825,0.1955,0.0726578282828,0.013,0.1825,0.1955,0.0726578282828,0.013,0.1825,0.1955,0.0726578282828
34040000,99.2304817821,138.342953103,79.6742461219,0.7335,0.232,0.517,0.0155,0.224,0.2395,0.0724016272797,0.0155,0.224,0.2395,0.0724016272797,0.0155,0.224,0.2395,0.0724016272797,0.0155,0.224,0.2395,0.0724016272797,0.0155,0.224,0.2395,0.0724016272797,0.0155,0.224,0.2395,0.0724016272797
34040000,99.4920486581,139.60684171,79.4346521322,0.756,0.2045,0.5505,0.0175,0.202,0.2195,0.101495492203,0.0175,0.2,0.2175,0.1024424619,0.0175,0.2,0.2175,0.1024424619,0.0175,0.198,0.2155,0.103484128566,0.0175,0.198,0.2155,0.103484128566,0.0175,0.198,0.2155,0.103484128566
34040000,99.643125185,139.892540103,79.5184177261,0.759,0.2015,0.555,0.014,0.182,0.196,0.0781898310023,0.014,0.182,0.196,0.0781898310023,0.01,0.182,0.192,0.0554625582751,0.01,0.182,0.192,0.0554625582751,0.01,0.182,0.192,0.0554625582751,0.01,0.182,0.192,0.0554625582751
34040000,99.6935570906,140.545431978,79.267619647,0.7335,0.202,0.531,0.036,0.194,0.23,0.187905844156,0.036,0.194,0.23,0.187905844156,0.036,0.194,0.23,0.187905844156,0.036,0.194,0.23,0.187905844156,0.036,0.194,0.23,0.187905844156,0.032,0.194,0.226,0.167072510823
34040000,101.127374143,142.023733821,80.6791943042,0.728,0.215,0.5135,0.012,0.2075,0.2195,0.0591817612212,0.012,0.2075,0.2195,0.0591817612212,0.012,0.2075,0.2195,0.0591817612212,0.012,0.2075,0.2195,0.0591817612212,0.012,0.2075,0.2195,0.0591817612212,0.012,0.2075,0.2195,0.0591817612212
34080000,91.262235257,104.34298858,84.7218585957,0.92,0.344,0.696,0.024,0.344,0.368,0.0697674418605,0.024,0.344,0.368,0.0697674418605,0.024,0.344,0.368,0.0697674418605,0.024,0.344,0.368,0.0697674418605,0.024,0.344,0.368,0.0697674418605,0.024,0.344,0.368,0.0697674418605
34120000,98.0443825648,131.952383872,81.0903819111,0.777,0.206,0.574,0.0305,0.2025,0.233,0.155559440559,0.0305,0.2015,0.232,0.155776831864,0.0305,0.2015,0.232,0.155776831864,0.0305,0.2015,0.232,0.155776831864,0.0305,0.2015,0.232,0.155776831864,0.0225,0.2015,0.224,0.110322286409
34120000,98.4919388011,131.608646542,81.9335849309,0.77,0.206,0.5655,0.0125,0.1975,0.21,0.0632873467113,0.0125,0.1975,0.21,0.0632873467113,0.0125,0.1975,0.21,0.0632873467113,0.0125,0.1975,0.21,0.0632873467113,0.0125,0.1975,0.21,0.0632873467113,0.0125,0.1975,0.21,0.0632873467113
34120000,99.1678782813,140.566688394,78.4684732249,0.7575,0.196,0.561,0.0115,0.181,0.1925,0.0624553571429,0.0105,0.181,0.1915,0.0574553571429,0.0105,0.181,0.1915,0.0574553571429,0.0105,0.1805,0.191,0.0580214803313,0.0105,0.1805,0.191,0.0580214803313,0.0105,0.1805,0.191,0.0580214803313
34120000,99.7903013318,133.851996314,82.7594538409,0.7655,0.204,0.564,0.0245,0.197,0.2215,0.125887177939,0.0245,0.197,0.2215,0.125887177939,0.0245,0.197,0.2215,0.125887177939,0.0245,0.197,0.2215,0.125887177939,0.0245,0.197,0.2215,0.125887177939,0.0245,0.197,0.2215,0.125887177939
34120000,99.8470760998,134.71518121,82.4130235444,0.7225,0.2075,0.5145,0.0085,0.199,0.2075,0.0427489358468,0.0085,0.199,0.2075,0.0427489358468,0.0085,0.199,0.2075,0.0427489358468,0.0085,0.199,0.2075,0.0427489358468,0.0085,0.199,0.2075,0.0427489358468,0.0085,0.199,0.2075,0.0427489358468
34120000,100.312141088,141.046665783,79.9448787403,0.764,0.282,0.453,0.0185,0.279,0.2975,0.0638688568376,0.0185,0.279,0.2975,0.0638688568376,0.0185,0.279,0.2975,0.0638688568376,0.0185,0.279,0.2975,0.0638688568376,0.0105,0.279,0.2895,0.0382278311966,0.0105,0.279,0.2895,0.0382278311966
34120000,100.334423168,140.977292321,80.012988591,0.746,0.194,0.554,0.013,0.177,0.19,0.069759200194,0.013,0.172,0.185,0.0718706866805,0.013,0.172,0.185,0.0718706866805,0.013,0.172,0.185,0.0718706866805,0.013,0.172,0.185,0.0718706866805,0.011,0.172,0.183,0.0599659247757
34120000,101.17961659,142.019582215,80.7596337773,0.7435,0.2805,0.527,0.0195,0.2795,0.299,0.0661074596136,0.0195,0.2795,0.299,0.0661074596136,0.0195,0.2795,0.299,0.0661074596136,0.0195,0.2795,0.299,0.0661074596136,0.0195,0.2795,0.299,0.0661074596136,0.0195,0.2795,0.299,0.0661074596136
34120000,101.223735311,143.735989463,79.9676082348,0.778,0.2535,0.5475,0.046,0.2495,0.2955,0.217754402129,0.046,0.2495,0.2955,0.217754402129,0.042,0.2495,0.2915,0.204240888616,0.042,0.2495,0.2915,0.204240888616,0.042,0.2455,0.2875,0.217877252252,0.042,0.2455,0.2875,0.217877252252
34120000,101.550747614,133.319365451,85.6664386952,0.7535,0.2025,0.551,0.012,0.195,0.207,0.0628170289855,0.012,0.195,0.207,0.0628170289855,0.012,0.195,0.207,0.0628170289855,0.012,0.194,0.206,0.0630253623188,0.012,0.194,0.206,0.0630253623188,0.012,0.194,0.206,0.0630253623188
34120000,101.840830803,144.119173458,80.7016594758,0.752,0.176,0.584,0.008,0.176,0.184,0.0454545454545,0.008,0.176,0.184,0.0454545454545,0.008,0.176,0.184,0.0454545454545,0.008,0.176,0.184,0.0454545454545,0.008,0.176,0.184,0.0454545454545,0.008,0.176,0.184,0.0454545454545
34120000,101.877791474,144.213363146,80.7100056377,0.773,0.1945,0.5225,0.018,0.1875,0.2055,0.094844014681,0.018,0.1855,0.2035,0.0954160970608,0.018,0.1855,0.2035,0.0954160970608,0.008,0.1855,0.1935,0.0433327637275,0.008,0.1855,0.1935,0.0433327637275,0.008,0.1855,0.1935,0.0433327637275
34120000,102.422350811,138.486776131,84.3901381509,0.789,0.2025,0.5835,0.0255,0.1985,0.224,0.127724358974,0.025,0.197,0.222,0.126684149184,0.021,0.197,0.218,0.107453379953,0.021,0.197,0.218,0.107453379953,0.0195,0.197,0.2165,0.0989306526807,0.0195,0.197,0.2165,0.0989306526807
34120000,102.905733512,146.094104405,81.3115480656,0.749,0.245,0.5165,0.0095,0.238,0.2475,0.0432401988109,0.0095,0.237,0.2465,0.0437342699571,0.0095,0.237,0.2465,0.0437342699571,0.0095,0.236,0.2455,0.0439345904699,0.0095,0.236,0.2455,0.0439345904699,0.0095,0.236,0.2455,0.0439345904699
34120000,103.001919474,145.286535741,81.8596113402,0.794,0.2135,0.596,0.0165,0.2035,0.22,0.0838659614043,0.0165,0.2035,0.22,0.0838659614043,0.0165,0.2025,0.219,0.0845181353174,0.0165,0.2025,0.219,0.0845181353174,0.0165,0.2025,0.219,0.0845181353174,0.0165,0.2025,0.219,0.0845181353174
34120000,103.611024607,147.190983502,81.8210451597,0.7835,0.198,0.549,0.0225,0.198,0.2205,0.11433784965,0.0225,0.198,0.2205,0.11433784965,0.02,0.198,0.218,0.102318618881,0.0195,0.197,0.2165,0.100956439394,0.0195,0.197,0.2165,0.100956439394,0.0195,0.197,0.2165,0.100956439394
34120000,104.282126817,139.489707401,86.6783365256,0.729,0.2025,0.5285,0.0135,0.1935,0.207,0.0704376013479,0.0135,0.1935,0.207,0.0704376013479,0.0135,0.1935,0.207,0.0704376013479,0.0135,0.1935,0.207,0.0704376013479,0.0135,0.1935,0.207,0.0704376013479,0.0135,0.1935,0.207,0.0704376013479
34120000,104.65923661,139.670204579,87.1537526251,0.7685,0.203,0.565,0.029,0.168,0.197,0.191774542593,0.029,0.168,0.197,0.191774542593,0.029,0.168,0.197,0.191774542593,0.029,0.168,0.197,0.191774542593,0.029,0.167,0.196,0.191982875926,0.029,0.167,0.196,0.191982875926
34120000,105.153582531,138.96936927,88.2456891615,0.757,0.1995,0.56,0.018,0.1895,0.2075,0.0970641300125,0.018,0.1895,0.2075,0.0970641300125,0.018,0.1875,0.2055,0.0986875066359,0.015,0.1835,0.1985,0.0837185127674,0.015,0.1835,0.1985,0.0837185127674,0.015,0.1835,0.1985,0.0837185127674
34120000,105.915322243,139.99951754,88.8732245944,0.7515,0.2,0.5505,0.01,0.193,0.203,0.0514583333333,0.01,0.193,0.203,0.0514583333333,0.01,0.193,0.203,0.0514583333333,0.01,0.193,0.203,0.0514583333333,0.01,0.193,0.203,0.0514583333333,0.01,0.193,0.203,0.0514583333333
34120000,106.268944979,139.154691476,89.8260717307,0.736,0.198,0.5375,0.016,0.1955,0.2115,0.0824427655678,0.016,0.1955,0.2115,0.0824427655678,0.016,0.1955,0.2115,0.0824427655678,0.016,0.1955,0.2115,0.0824427655678,0.016,0.1955,0.2115,0.0824427655678,0.016,0.1955,0.2115,0.0824427655678
34120000,106.746469455,141.637198411,89.3011049771,0.751,0.2005,0.5465,0.0165,0.196,0.2125,0.0846168414918,0.0165,0.196,0.2125,0.0846168414918,0.0165,0.196,0.2125,0.0846168414918,0.0165,0.196,0.2125,0.0846168414918,0.0165,0.196,0.2125,0.0846168414918,0.0165,0.196,0.2125,0.0846168414918
34120000,109.775831786,145.581680608,91.8729073751,0.722,0.1995,0.5265,0.0135,0.198,0.2115,0.0680652680653,0.0135,0.198,0.2115,0.0680652680653,0.0135,0.198,0.2115,0.0680652680653,0.0135,0.198,0.2115,0.0680652680653,0.0135,0.1965,0.21,0.0685138326586,0.0135,0.196,0.2095,0.0687061403509
34120000,109.807828124,145.022282968,92.2006007015,0.744,0.2055,0.55,0.017,0.204,0.221,0.082525083612,0.017,0.204,0.221,0.082525083612,0.017,0.204,0.221,0.082525083612,0.013,0.204,0.217,0.0632943143813,0.013,0.204,0.217,0.0632943143813,0.013,0.204,0.217,0.0632943143813
34160000,92.6920173664,134.27829429,71.8988789045,0.762,0.2785,0.5585,0.0285,0.259,0.2875,0.113891974254,0.0285,0.259,0.2875,0.113891974254,0.0285,0.259,0.2875,0.113891974254,0.0285,0.259,0.2875,0.113891974254,0.0285,0.259,0.2875,0.113891974254,0.0285,0.257,0.2855,0.116272926635
34160000,93.1604075584,122.027520824,78.7268509254,0.5695,0.341,0.387,0.0245,0.335,0.3595,0.102077357671,0.0125,0.335,0.3475,0.0395773576706,0.0125,0.335,0.3475,0.0395773576706,0.0125,0.335,0.3475,0.0395773576706,0.0125,0.335,0.3475,0.0395773576706,0.0125,0.335,0.3475,0.0395773576706
34160000,93.6602379348,132.368038355,74.3063377247,0.7465,0.196,0.5505,0.0165,0.1885,0.205,0.0913429633867,0.0165,0.1885,0.205,0.0913429633867,0.0165,0.1885,0.205,0.0913429633867,0.0145,0.1885,0.203,0.0781850686499,0.0145,0.1885,0.203,0.0781850686499,0.0145,0.1885,0.203,0.0781850686499
34160000,94.5836335955,120.506589107,81.6221558399,0.7215,0.202,0.521,0.0105,0.196,0.2065,0.054081027668,0.0105,0.196,0.2065,0.054081027668,0.0105,0.196,0.2065,0.054081027668,0.0105,0.196,0.2065,0.054081027668,0.0105,0.196,0.2065,0.054081027668,0.0105,0.196,0.2065,0.054081027668
34160000,96.3207245775,127.940225652,80.5109740401,0.7375,0.1935,0.438,0.0115,0.19,0.2015,0.0619526397516,0.011,0.19,0.201,0.0594526397516,0.011,0.19,0.201,0.0594526397516,0.011,0.19,0.201,0.0594526397516,0.011,0.19,0.201,0.0594526397516,0.011,0.19,0.201,0.0594526397516
34160000,98.2410747778,141.121399357,76.8009124881,0.6215,0.1895,0.4265,0.036,0.179,0.215,0.206169772257,0.024,0.179,0.203,0.134741200828,0.024,0.179,0.203,0.134741200828,0.024,0.179,0.203,0.134741200828,0.023,0.179,0.202,0.129741200828,0.023,0.179,0.202,0.129741200828
34160000,99.257987165,143.353193066,77.2103842145,0.6705,0.212,0.455,0.019,0.2075,0.2265,0.0933062368388,0.019,0.2075,0.2265,0.0933062368388,0.019,0.2075,0.2265,0.0933062368388,0.011,0.2065,0.2175,0.0548892140468,0.011,0.2065,0.2175,0.0548892140468,0.011,0.2065,0.2175,0.0548892140468
34160000,99.2632142137,141.473080368,78.1582811364,0.675,0.1965,0.443,0.028,0.186,0.214,0.151691750279,0.028,0.1855,0.2135,0.151795916945,0.028,0.1855,0.2135,0.151795916945,0.028,0.184,0.212,0.152167940755,0.028,0.184,0.212,0.152167940755,0.028,0.184,0.212,0.152167940755
34160000,101.382059234,144.86340326,79.6413872207,0.7145,0.1975,0.408,0.01,0.196,0.206,0.0517610785953,0.01,0.196,0.206,0.0517610785953,0.01,0.182,0.192,0.0553035887168,0.01,0.182,0.192,0.0553035887168,0.01,0.182,0.192,0.0553035887168,0.01,0.182,0.192,0.0553035887168
34160000,102.397641775,145.442598549,80.8751633879,0.7775,0.2075,0.584,0.015,0.2055,0.2205,0.0773402292152,0.015,0.2055,0.2205,0.0773402292152,0.015,0.2055,0.2205,0.0773402292152,0.015,0.2055,0.2205,0.0773402292152,0.015,0.2055,0.2205,0.0773402292152,0.015,0.2055,0.2205,0.0773402292152
34160000,105.369752202,149.957641695,83.0758074549,0.6905,0.203,0.493,0.017,0.176,0.193,0.102825616413,0.017,0.176,0.193,0.102825616413,0.017,0.176,0.193,0.102825616413,0.017,0.176,0.193,0.102825616413,0.0155,0.176,0.1915,0.093897044984,0.0155,0.176,0.1915,0.093897044984
34160000,106.895225899,149.151680351,85.766998673,0.7575,0.28,0.462,0.009,0.2745,0.2835,0.0360030291875,0.009,0.2745,0.2835,0.0360030291875,0.009,0.2745,0.2835,0.0360030291875,0.009,0.2745,0.2835,0.0360030291875,0.009,0.2745,0.2835,0.0360030291875,0.009,0.273,0.282,0.0361233757857
34160000,107.766690354,150.172840658,86.5636152014,0.654,0.25,0.4285,0.015,0.247,0.262,0.0641847041847,0.015,0.247,0.262,0.0641847041847,0.015,0.247,0.262,0.0641847041847,0.015,0.247,0.262,0.0641847041847,0.015,0.247,0.262,0.0641847041847,0.015,0.247,0.262,0.0641847041847
34200000,92.1224536829,125.759027442,75.3041668032,0.6235,0.2105,0.4425,0.019,0.181,0.2,0.108442382899,0.019,0.181,0.2,0.108442382899,0.019,0.181,0.2,0.108442382899,0.019,0.181,0.2,0.108442382899,0.019,0.181,0.2,0.108442382899,0.019,0.181,0.2,0.108442382899
34200000,93.2170546432,137.618647887,71.0162580214,0.818,0.216,0.603,0.0095,0.206,0.2155,0.0468365546491,0.0095,0.206,0.2155,0.0468365546491,0.0095,0.206,0.2155,0.0468365546491,0.0095,0.206,0.2155,0.0468365546491,0.0095,0.206,0.2155,0.0468365546491,0.0095,0.206,0.2155,0.0468365546491
34200000,94.6949862497,139.973974182,72.0554922834,0.8525,0.591,0.6285,0.0305,0.579,0.6095,0.0720901341306,0.0305,0.579,0.6095,0.0720901341306,0.0305,0.579,0.6095,0.0720901341306,0.0305,0.579,0.6095,0.0720901341306,0.0305,0.579,0.6095,0.0720901341306,0.0305,0.579,0.6095,0.0720901341306
34200000,95.7049662664,139.055947437,74.0294756813,0.799,0.2365,0.583,0.033,0.2325,0.2655,0.141715529918,0.033,0.2325,0.2655,0.141715529918,0.033,0.2325,0.2655,0.141715529918,0.033,0.2325,0.2655,0.141715529918,0.033,0.2325,0.2655,0.141715529918,0.033,0.2325,0.2655,0.141715529918
34200000,95.7600580391,142.463546069,72.4083140239,0.8415,0.2165,0.6185,0.02,0.2105,0.2305,0.0953652828653,0.02,0.2105,0.2305,0.0953652828653,0.02,0.2105,0.2305,0.0953652828653,0.02,0.2105,0.2305,0.0953652828653,0.018,0.2105,0.2285,0.0857498982499,0.018,0.2105,0.2285,0.0857498982499
34200000,95.8632874723,140.54145934,73.5242015384,0.8175,0.2235,0.592,0.0315,0.209,0.2405,0.153056318681,0.0315,0.209,0.2405,0.153056318681,0.0315,0.209,0.2405,0.153056318681,0.0315,0.209,0.2405,0.153056318681,0.0315,0.209,0.2405,0.153056318681,0.0315,0.209,0.2405,0.153056318681
34200000,96.4807984292,143.464600549,72.9888973695,0.842,0.216,0.6215,0.025,0.2125,0.2375,0.120264550265,0.025,0.2125,0.2375,0.120264550265,0.025,0.2125,0.2375,0.120264550265,0.024,0.2125,0.2365,0.115264550265,0.024,0.2125,0.2365,0.115264550265,0.024,0.2095,0.2335,0.120472883598
34200000,96.6498763574,142.967031588,73.4912987419,0.8295,0.224,0.6065,0.022,0.214,0.236,0.104376526252,0.022,0.214,0.236,0.104376526252,0.022,0.214,0.236,0.104376526252,0.022,0.214,0.236,0.104376526252,0.022,0.214,0.236,0.104376526252,0.022,0.214,0.236,0.104376526252
34200000,96.6583847315,142.38864591,73.7932541423,0.7865,0.2075,0.5735,0.019,0.1915,0.2105,0.0996703904992,0.019,0.1915,0.2105,0.0996703904992,0.0175,0.1915,0.209,0.0921703904992,0.0135,0.1915,0.205,0.0704312600644,0.0135,0.1915,0.205,0.0704312600644,0.0135,0.1915,0.205,0.0704312600644
34200000,96.7366727034,142.68359951,73.7632093001,0.816,0.2195,0.5985,0.015,0.215,0.23,0.0706050315425,0.015,0.215,0.23,0.0706050315425,0.015,0.215,0.23,0.0706050315425,0.015,0.215,0.23,0.0706050315425,0.015,0.215,0.23,0.0706050315425,0.015,0.215,0.23,0.0706050315425
34200000,96.9075182308,142.597398419,74.0625781366,0.796,0.1965,0.5595,0.023,0.178,0.201,0.134176491437,0.023,0.178,0.201,0.134176491437,0.023,0.178,0.201,0.134176491437,0.023,0.178,0.201,0.134176491437,0.023,0.158,0.181,0.160914459351,0.023,0.158,0.181,0.160914459351
34200000,96.9757216026,142.377633036,74.274765886,0.79,0.2325,0.56,0.023,0.2255,0.2485,0.107068040892,0.023,0.2255,0.2485,0.107068040892,0.023,0.2255,0.2485,0.107068040892,0.023,0.2185,0.2415,0.115169892743,0.0215,0.2185,0.24,0.108225448299,0.0215,0.2185,0.24,0.108225448299
34200000,96.9968708882,144.119760234,73.435426215,0.831,0.2135,0.6155,0.009,0.2075,0.2165,0.0434051724138,0.009,0.2075,0.2165,0.0434051724138,0.009,0.2075,0.2165,0.0434051724138,0.009,0.2075,0.2165,0.0434051724138,0.009,0.2075,0.2165,0.0434051724138,0.009,0.2075,0.2165,0.0434051724138
34200000,97.0357555439,143.22564847,73.9408090807,0.8185,0.222,0.596,0.0135,0.214,0.2275,0.0650188237688,0.0135,0.214,0.2275,0.0650188237688,0.0135,0.214,0.2275,0.0650188237688,0.0135,0.213,0.2265,0.0653891941392,0.0135,0.2125,0.226,0.0663266941392,0.0135,0.2125,0.226,0.0663266941392
34200000,97.3428241211,143.096111398,74.4661804829,0.8055,0.211,0.588,0.023,0.209,0.232,0.110398860399,0.023,0.209,0.232,0.110398860399,0.023,0.209,0.232,0.110398860399,0.019,0.2085,0.2275,0.0913603988604,0.019,0.2085,0.2275,0.0913603988604,0.019,0.2085,0.2275,0.0913603988604
34200000,97.5026184296,137.508430714,77.4997122874,0.78,0.218,0.363,0.025,0.2125,0.2375,0.116380549804,0.025,0.2125,0.2375,0.116380549804,0.025,0.2125,0.2375,0.116380549804,0.025,0.2125,0.2375,0.116380549804,0.025,0.2125,0.2375,0.116380549804,0.025,0.2125,0.2375,0.116380549804
34200000,97.7347045637,144.599296572,74.3024085596,0.818,0.2145,0.5975,0.0155,0.208,0.2235,0.0744373219373,0.0155,0.208,0.2235,0.0744373219373,0.0155,0.207,0.2225,0.0746296296296,0.0155,0.207,0.2225,0.0746296296296,0.0155,0.207,0.2225,0.0746296296296,0.0155,0.207,0.2225,0.0746296296296
34200000,98.2536954048,143.8657128,75.4476867071,0.8105,0.214,0.6015,0.0155,0.211,0.2265,0.073647995523,0.0155,0.203,0.2185,0.080641002516,0.0155,0.203,0.2185,0.080641002516,0.0155,0.199,0.2145,0.0814102332852,0.0155,0.199,0.2145,0.0814102332852,0.0155,0.199,0.2145,0.0814102332852
34200000,98.3420926864,145.081782003,74.9722480278,0.82,0.218,0.595,0.027,0.212,0.239,0.129638532764,0.027,0.212,0.239,0.129638532764,0.027,0.212,0.239,0.129638532764,0.027,0.212,0.239,0.129638532764,0.027,0.212,0.239,0.129638532764,0.026,0.212,0.238,0.124638532764
34200000,98.7206626789,143.127031133,76.5174784518,0.7955,0.2075,0.591,0.018,0.194,0.212,0.0945468581338,0.018,0.194,0.212,0.0945468581338,0.018,0.194,0.212,0.0945468581338,0.018,0.192,0.21,0.0949314735184,0.018,0.192,0.21,0.0949314735184,0.018,0.191,0.209,0.0955083965954
34200000,98.7770016901,143.26722194,76.5318915653,0.7745,0.2205,0.5625,0.0165,0.2185,0.235,0.0759778184778,0.0165,0.2185,0.235,0.0759778184778,0.0165,0.2185,0.235,0.0759778184778,0.0165,0.2185,0.235,0.0759778184778,0.0165,0.2185,0.235,0.0759778184778,0.0165,0.2185,0.235,0.0759778184778
34200000,100.787539461,147.499393644,77.4316123693,0.814,0.221,0.592,0.0195,0.213,0.2325,0.0909684065934,0.0155,0.213,0.2285,0.0717376373626,0.0155,0.213,0.2285,0.0717376373626,0.0155,0.213,0.2285,0.0717376373626,0.0155,0.213,0.2285,0.0717376373626,0.0155,0.213,0.2285,0.0717376373626
34200000,100.889465871,147.380563759,77.6439169271,0.7835,0.2175,0.57,0.0205,0.2,0.2205,0.108271482945,0.019,0.2,0.219,0.100771482945,0.019,0.2,0.219,0.100771482945,0.019,0.2,0.219,0.100771482945,0.019,0.2,0.219,0.100771482945,0.019,0.2,0.219,0.100771482945
34200000,101.028674579,144.512016081,79.2870038277,0.819,0.22,0.6015,0.0165,0.212,0.2285,0.0789016076516,0.0165,0.212,0.2285,0.0789016076516,0.0165,0.212,0.2285,0.0789016076516,0.0165,0.212,0.2285,0.0789016076516,0.0165,0.212,0.2285,0.0789016076516,0.0165,0.212,0.2285,0.0789016076516
34200000,101.053209822,148.361532918,77.3990482737,0.8015,0.221,0.578,0.0105,0.21,0.2205,0.0500356125356,0.0085,0.21,0.2185,0.0404202279202,0.0085,0.21,0.2185,0.0404202279202,0.0085,0.21,0.2185,0.0404202279202,0.0085,0.21,0.2185,0.0404202279202,0.0085,0.21,0.2185,0.0404202279202
34200000,101.21337612,148.960068003,77.3400301784,0.799,0.2155,0.5865,0.013,0.207,0.22,0.0631387362637,0.013,0.2065,0.2195,0.0632348901099,0.013,0.2065,0.2195,0.0632348901099,0.013,0.2065,0.2195,0.0632348901099,0.013,0.2065,0.2195,0.0632348901099,0.013,0.2065,0.2195,0.0632348901099
34200000,101.21361133,148.184562297,77.7281358461,0.789,0.2205,0.5725,0.0135,0.2135,0.227,0.0640078646193,0.0135,0.2135,0.227,0.0640078646193,0.0135,0.2135,0.227,0.0640078646193,0.0135,0.2095,0.223,0.0647519122383,0.0135,0.2095,0.223,0.0647519122383,0.0135,0.2095,0.223,0.0647519122383
34200000,101.451004774,148.071954972,78.1405296753,0.7785,0.2235,0.5585,0.0295,0.219,0.2485,0.136008089133,0.0135,0.219,0.2325,0.061934015059,0.0135,0.219,0.2325,0.061934015059,0.0135,0.219,0.2325,0.061934015059,0.0135,0.219,0.2325,0.061934015059,0.0135,0.219,0.2325,0.061934015059
34200000,101.584017014,148.05661898,78.3477160305,0.7715,0.2235,0.5475,0.0145,0.2105,0.225,0.0678192615693,0.0145,0.2105,0.225,0.0678192615693,0.0145,0.2105,0.225,0.0678192615693,0.0145,0.2105,0.225,0.0678192615693,0.0145,0.2105,0.225,0.0678192615693,0.0145,0.2105,0.225,0.0678192615693
34200000,101.691148292,148.583651768,78.2448965539,0.797,0.219,0.5755,0.02,0.2075,0.2275,0.0986623677249,0.02,0.2075,0.2275,0.0986623677249,0.02,0.2075,0.2275,0.0986623677249,0.02,0.2075,0.2275,0.0986623677249,0.02,0.2075,0.2275,0.0986623677249,0.02,0.2075,0.2275,0.0986623677249
34200000,101.691213911,145.426414542,79.8236135955,0.7555,0.218,0.554,0.026,0.2135,0.2395,0.121955286093,0.026,0.2125,0.2385,0.122756568144,0.026,0.2125,0.2385,0.122756568144,0.026,0.2125,0.2385,0.122756568144,0.026,0.2125,0.2385,0.122756568144,0.024,0.2125,0.2365,0.114135878489
34200000,101.94973618,148.949727752,78.4497403936,0.808,0.215,0.5885,0.0205,0.205,0.2255,0.100277777778,0.0205,0.205,0.2255,0.100277777778,0.0205,0.205,0.2255,0.100277777778,0.0205,0.205,0.2255,0.100277777778,0.0205,0.205,0.2255,0.100277777778,0.0205,0.205,0.2255,0.100277777778
34200000,102.033464647,149.465747881,78.3173230294,0.804,0.213,0.5865,0.0365,0.19,0.2265,0.197853072853,0.0365,0.19,0.2265,0.197853072853,0.0365,0.19,0.2265,0.197853072853,0.0365,0.19,0.2265,0.197853072853,0.0365,0.186,0.2225,0.203805453805,0.0365,0.186,0.2225,0.203805453805
34200000,102.060660548,148.014656455,79.083662594,0.7755,0.218,0.5555,0.013,0.205,0.218,0.064783017908,0.013,0.205,0.218,0.064783017908,0.013,0.205,0.218,0.064783017908,0.013,0.205,0.218,0.064783017908,0.013,0.205,0.218,0.064783017908,0.013,0.205,0.218,0.064783017908
34200000,102.242230903,148.638872974,79.0439098673,0.782,0.2115,0.5805,0.0235,0.206,0.2295,0.116169871795,0.0235,0.206,0.2295,0.116169871795,0.0235,0.206,0.2295,0.116169871795,0.0235,0.206,0.2295,0.116169871795,0.0235,0.206,0.2295,0.116169871795,0.0235,0.206,0.2295,0.116169871795
34200000,102.243464668,149.060564902,78.8349145512,0.7975,0.216,0.5815,0.02,0.2115,0.2315,0.0941283831909,0.02,0.2115,0.2315,0.0941283831909,0.02,0.2115,0.2315,0.0941283831909,0.02,0.2115,0.2315,0.0941283831909,0.02,0.2115,0.2315,0.0941283831909,0.02,0.2115,0.2315,0.0941283831909
34200000,102.363324448,149.286045737,78.9019638034,0.8215,0.219,0.6055,0.0215,0.215,0.2365,0.100001271876,0.0215,0.215,0.2365,0.100001271876,0.0215,0.215,0.2365,0.100001271876,0.0215,0.215,0.2365,0.100001271876,0.0215,0.215,0.2365,0.100001271876,0.0215,0.215,0.2365,0.100001271876
34200000,102.365860135,146.012158596,80.5427109051,0.7435,0.2185,0.4705,0.011,0.2135,0.2245,0.0512248168498,0.011,0.2055,0.2165,0.0544454287661,0.011,0.2055,0.2165,0.0544454287661,0.011,0.2055,0.2165,0.0544454287661,0.011,0.2055,0.2165,0.0544454287661,0.011,0.2055,0.2165,0.0544454287661
34200000,102.425830688,149.360646765,78.9584226489,0.823,0.272,0.597,0.0145,0.2535,0.268,0.0575396825397,0.0145,0.2535,0.268,0.0575396825397,0.0145,0.2535,0.268,0.0575396825397,0.0145,0.2535,0.268,0.0575396825397,0.0105,0.2535,0.264,0.0436507936508,0.0105,0.2535,0.264,0.0436507936508
34200000,102.745398727,147.592724352,80.3217359149,0.756,0.2205,0.5405,0.021,0.215,0.236,0.0992800303145,0.021,0.215,0.236,0.0992800303145,0.021,0.215,0.236,0.0992800303145,0.021,0.215,0.236,0.0992800303145,0.021,0.215,0.236,0.0992800303145,0.021,0.215,0.236,0.0992800303145
34200000,102.817073994,149.424353663,79.5134341599,0.772,0.217,0.5515,0.013,0.1935,0.2065,0.0670359124306,0.013,0.1935,0.2065,0.0670359124306,0.013,0.1935,0.2065,0.0670359124306,0.013,0.1915,0.2045,0.0683946080828,0.013,0.1915,0.2045,0.0683946080828,0.013,0.1915,0.2045,0.0683946080828
34200000,103.667996478,149.631469857,80.6862597884,0.7515,0.213,0.551,0.018,0.198,0.216,0.0897843475968,0.018,0.198,0.216,0.0897843475968,0.018,0.198,0.216,0.0897843475968,0.017,0.198,0.215,0.0838319666445,0.017,0.198,0.215,0.0838319666445,0.017,0.198,0.215,0.0838319666445
34200000,103.791424955,149.046045379,81.1641147426,0.787,0.211,0.585,0.0165,0.199,0.2155,0.0821245421245,0.0165,0.199,0.2155,0.0821245421245,0.0165,0.199,0.2155,0.0821245421245,0.0145,0.199,0.2135,0.0721245421245,0.0145,0.198,0.2125,0.0727014652015,0.0145,0.198,0.2125,0.0727014652015
34200000,103.866347878,149.493673021,81.0526853061,0.771,0.2465,0.5525,0.0165,0.242,0.2585,0.0677090757263,0.0165,0.242,0.2585,0.0677090757263,0.0165,0.242,0.2585,0.0677090757263,0.0165,0.241,0.2575,0.0686706141879,0.0165,0.241,0.2575,0.0686706141879,0.0165,0.241,0.2575,0.0686706141879
34200000,104.72303327,149.490815999,82.3391419057,0.765,0.205,0.5515,0.0175,0.2005,0.218,0.0879250278707,0.0165,0.2005,0.217,0.0829250278707,0.0165,0.2005,0.217,0.0829250278707,0.0165,0.2005,0.217,0.0829250278707,0.0165,0.2005,0.217,0.0829250278707,0.0165,0.2005,0.217,0.0829250278707
34200000,105.286083673,149.369561056,83.2443449806,0.758,0.214,0.537,0.035,0.2075,0.2425,0.168380519943,0.035,0.2075,0.2425,0.168380519943,0.035,0.2075,0.2425,0.168380519943,0.035,0.2075,0.2425,0.168380519943,0.035,0.2075,0.2425,0.168380519943,0.031,0.2075,0.2385,0.149149750712
34200000,105.39440203,149.3810389,83.401083595,0.7655,0.211,0.547,0.0595,0.1985,0.258,0.291530631205,0.0595,0.1985,0.258,0.291530631205,0.0595,0.1985,0.258,0.291530631205,0.0595,0.1985,0.258,0.291530631205,0.0595,0.1985,0.258,0.291530631205,0.0595,0.1985,0.258,0.291530631205
34200000,105.421459379,149.248018718,83.5081797099,0.75,0.21,0.545,0.011,0.196,0.207,0.0560897435897,0.011,0.196,0.207,0.0560897435897,0.011,0.196,0.207,0.0560897435897,0.011,0.196,0.207,0.0560897435897,0.011,0.196,0.207,0.0560897435897,0.011,0.196,0.207,0.0560897435897
34200000,105.612961181,149.584299178,83.6272921824,0.764,0.21,0.556,0.0465,0.201,0.2475,0.232215099715,0.0465,0.201,0.2475,0.232215099715,0.0465,0.201,0.2475,0.232215099715,0.0465,0.201,0.2475,0.232215099715,0.0265,0.201,0.2275,0.130363247863,0.0265,0.201,0.2275,0.130363247863
34200000,105.691450577,149.556721263,83.758815234,0.7835,0.2085,0.573,0.0125,0.201,0.2135,0.0620352564103,0.0125,0.201,0.2135,0.0620352564103,0.0125,0.197,0.2095,0.0628685897436,0.0125,0.197,0.2095,0.0628685897436,0.0125,0.197,0.2095,0.0628685897436,0.0125,0.197,0.2095,0.0628685897436
34200000,106.637570936,149.535877621,85.1884175932,0.754,0.228,0.5285,0.0245,0.222,0.2465,0.109326537128,0.0245,0.222,0.2465,0.109326537128,0.0245,0.222,0.2465,0.109326537128,0.0245,0.222,0.2465,0.109326537128,0.0245,0.222,0.2465,0.109326537128,0.0245,0.222,0.2465,0.109326537128
34200000,107.448472552,149.993376086,86.1760207854,0.6715,0.192,0.479,0.014,0.1915,0.2055,0.0730764163373,0.014,0.1915,0.2055,0.0730764163373,0.014,0.1915,0.2055,0.0730764163373,0.014,0.1915,0.2055,0.0730764163373,0.014,0.1915,0.2055,0.0730764163373,0.014,0.1915,0.2055,0.0730764163373
34200000,108.854650388,149.757109809,88.403420678,0.722,0.21,0.5175,0.024,0.21,0.234,0.112222222222,0.024,0.21,0.234,0.112222222222,0.024,0.208,0.232,0.112657004831,0.024,0.205,0.229,0.113472222222,0.024,0.205,0.229,0.113472222222,0.024,0.205,0.229,0.113472222222
34240000,100.368427254,147.613273032,76.7460043653,0.728,0.2035,0.524,0.0195,0.1975,0.217,0.100620629371,0.0195,0.1975,0.217,0.100620629371,0.0195,0.1975,0.217,0.100620629371,0.0195,0.1975,0.217,0.100620629371,0.0195,0.1975,0.217,0.100620629371,0.0195,0.1975,0.217,0.100620629371
34240000,101.525930333,146.180130679,79.1988301597,0.698,0.2395,0.496,0.0255,0.236,0.2615,0.120434576423,0.0135,0.236,0.2495,0.0552171851182,0.0135,0.236,0.2495,0.0552171851182,0.0135,0.2355,0.249,0.0553304097559,0.0135,0.2355,0.249,0.0553304097559,0.0135,0.2355,0.249,0.0553304097559
34240000,102.118733717,149.176504354,78.5898483985,0.7485,0.1915,0.549,0.0145,0.186,0.2005,0.0776515151515,0.0105,0.186,0.1965,0.0568181818182,0.0105,0.186,0.1965,0.0568181818182,0.0105,0.186,0.1965,0.0568181818182,0.0105,0.186,0.1965,0.0568181818182,0.0105,0.186,0.1965,0.0568181818182
34240000,102.179887117,146.095650671,80.2220053402,0.6185,0.1575,0.4405,0.015,0.149,0.164,0.0953960622711,0.015,0.149,0.164,0.0953960622711,0.015,0.149,0.164,0.0953960622711,0.014,0.149,0.163,0.0901877289377,0.012,0.149,0.161,0.0799793956044,0.012,0.149,0.161,0.0799793956044
34240000,102.210690135,148.498989045,79.06654068,0.731,0.2,0.521,0.011,0.185,0.196,0.0580904602644,0.011,0.185,0.196,0.0580904602644,0.011,0.185,0.196,0.0580904602644,0.011,0.185,0.196,0.0580904602644,0.011,0.185,0.196,0.0580904602644,0.011,0.185,0.196,0.0580904602644
34240000,102.842528537,148.990106369,79.7687396213,0.696,0.249,0.489,0.0175,0.2375,0.255,0.0882817278287,0.0135,0.2375,0.251,0.0674483944954,0.0135,0.2375,0.251,0.0674483944954,0.0135,0.2375,0.251,0.0674483944954,0.0135,0.2375,0.251,0.0674483944954,0.0135,0.2375,0.251,0.0674483944954
34240000,103.528194563,148.423810299,81.0803866952,0.6885,0.2145,0.4425,0.011,0.214,0.225,0.0540773809524,0.011,0.214,0.225,0.0540773809524,0.011,0.214,0.225,0.0540773809524,0.011,0.214,0.225,0.0540773809524,0.011,0.214,0.225,0.0540773809524,0.011,0.214,0.225,0.0540773809524
34240000,103.7269139,149.467707211,80.8565172446,0.686,0.237,0.4715,0.022,0.2315,0.2535,0.0949110772358,0.02,0.2275,0.2475,0.0857451923077,0.014,0.2275,0.2415,0.0557451923077,0.014,0.2195,0.2335,0.0574843227425,0.014,0.2195,0.2335,0.0574843227425,0.014,0.2195,0.2335,0.0574843227425
34240000,103.758298755,150.723091126,80.2759025688,0.7445,0.196,0.4865,0.0235,0.194,0.2175,0.121382575758,0.0235,0.194,0.2175,0.121382575758,0.0235,0.194,0.2175,0.121382575758,0.0235,0.1935,0.217,0.121517857143,0.0235,0.1935,0.217,0.121517857143,0.0235,0.1935,0.217,0.121517857143
34240000,104.130744261,149.799050453,81.2965911647,0.6985,0.196,0.5,0.01,0.1895,0.1995,0.0531023550725,0.01,0.1895,0.1995,0.0531023550725,0.01,0.1895,0.1995,0.0531023550725,0.01,0.1895,0.1995,0.0531023550725,0.01,0.1895,0.1995,0.0531023550725,0.01,0.1895,0.1995,0.0531023550725
34240000,104.451651619,149.732308038,81.8113234096,0.685,0.1875,0.49,0.0115,0.173,0.1845,0.0666937229437,0.01,0.173,0.183,0.058170995671,0.01,0.173,0.183,0.058170995671,0.01,0.173,0.183,0.058170995671,0.01,0.173,0.183,0.058170995671,0.01,0.173,0.183,0.058170995671
34240000,106.379310556,149.775510224,84.6812107227,0.68,0.2015,0.479,0.012,0.197,0.209,0.063539069626,0.012,0.197,0.209,0.063539069626,0.012,0.197,0.209,0.063539069626,0.012,0.197,0.209,0.063539069626,0.012,0.197,0.209,0.063539069626,0.012,0.197,0.209,0.063539069626
34240000,107.496634073,149.874769383,86.307566418,0.6585,0.2185,0.4715,0.0125,0.2165,0.229,0.0662494722769,0.0125,0.2165,0.229,0.0662494722769,0.0125,0.2165,0.229,0.0662494722769,0.0125,0.2165,0.229,0.0662494722769,0.0125,0.2165,0.229,0.0662494722769,0.0125,0.2165,0.229,0.0662494722769
34480000,95.3619631795,136.411751625,74.8370689569,0.705,0.1985,0.5285,0.013,0.191,0.204,0.0681974637681,0.013,0.191,0.204,0.0681974637681,0.013,0.191,0.204,0.0681974637681,0.013,0.191,0.204,0.0681974637681,0.013,0.191,0.204,0.0681974637681,0.013,0.191,0.204,0.0681974637681
34480000,96.69369468,145.572107414,72.2544883128,0.806,0.194,0.603,0.039,0.1875,0.2265,0.210484601449,0.039,0.1875,0.2265,0.210484601449,0.039,0.1875,0.2265,0.210484601449,0.038,0.1865,0.2245,0.205955615942,0.038,0.1865,0.2245,0.205955615942,0.036,0.1865,0.2225,0.195086050725
34480000,99.0331853947,148.784920944,74.15731762,0.806,0.2015,0.609,0.0155,0.199,0.2145,0.0781701631702,0.0155,0.199,0.2145,0.0781701631702,0.0155,0.199,0.2145,0.0781701631702,0.015,0.199,0.214,0.0755659965035,0.015,0.199,0.214,0.0755659965035,0.015,0.199,0.214,0.0755659965035
34480000,99.0725617807,148.71608464,74.2508003511,0.7795,0.1945,0.5865,0.01,0.17,0.18,0.0581944444444,0.01,0.17,0.18,0.0581944444444,0.01,0.17,0.18,0.0581944444444,0.01,0.17,0.18,0.0581944444444,0.01,0.17,0.18,0.0581944444444,0.01,0.152,0.162,0.0694444444444
34480000,99.5905401379,148.903139412,74.9342405006,0.786,0.1945,0.5885,0.01,0.193,0.203,0.0514855072464,0.01,0.193,0.203,0.0514855072464,0.01,0.193,0.203,0.0514855072464,0.01,0.193,0.203,0.0514855072464,0.01,0.193,0.203,0.0514855072464,0.01,0.193,0.203,0.0514855072464
34480000,99.7685031127,149.238953143,75.0332780977,0.825,0.2,0.617,0.0125,0.19,0.2025,0.0650724637681,0.0125,0.186,0.1985,0.0660606060606,0.0125,0.186,0.1985,0.0660606060606,0.0125,0.186,0.1985,0.0660606060606,0.0125,0.186,0.1985,0.0660606060606,0.0125,0.186,0.1985,0.0660606060606
34480000,100.034712171,149.987213028,75.058461743,0.8015,0.1985,0.606,0.0185,0.189,0.2075,0.096847826087,0.0125,0.189,0.2015,0.066847826087,0.0125,0.189,0.2015,0.066847826087,0.0125,0.189,0.2015,0.066847826087,0.0125,0.189,0.2015,0.066847826087,0.0125,0.189,0.2015,0.066847826087
34480000,100.398853005,149.824970735,75.6857941402,0.8035,0.2005,0.609,0.021,0.197,0.218,0.107261904762,0.021,0.197,0.218,0.107261904762,0.021,0.197,0.218,0.107261904762,0.021,0.195,0.216,0.108511904762,0.021,0.195,0.216,0.108511904762,0.021,0.195,0.216,0.108511904762
34480000,100.442791872,150.051428541,75.6384735374,0.79,0.197,0.5915,0.021,0.1945,0.2155,0.106625905797,0.021,0.1945,0.2155,0.106625905797,0.021,0.1945,0.2155,0.106625905797,0.021,0.1945,0.2155,0.106625905797,0.021,0.1945,0.2155,0.106625905797,0.021,0.1945,0.2155,0.106625905797
34480000,100.455384215,148.79715512,76.2844987631,0.775,0.1965,0.577,0.029,0.195,0.224,0.148257575758,0.029,0.195,0.224,0.148257575758,0.029,0.195,0.224,0.148257575758,0.017,0.195,0.212,0.0882575757576,0.017,0.195,0.212,0.0882575757576,0.017,0.195,0.212,0.0882575757576
34480000,100.678343642,150.001697655,76.0166666357,0.803,0.1985,0.5995,0.032,0.1865,0.2185,0.174593332392,0.032,0.1865,0.2185,0.174593332392,0.032,0.1865,0.2185,0.174593332392,0.031,0.1865,0.2175,0.16891151421,0.031,0.1865,0.2175,0.16891151421,0.031,0.1865,0.2175,0.16891151421
34480000,100.966321167,149.886090681,76.5064364106,0.774,0.1885,0.5755,0.0255,0.1745,0.2,0.14671273973,0.0255,0.1745,0.2,0.14671273973,0.0255,0.1745,0.2,0.14671273973,0.0255,0.174,0.1995,0.146895488268,0.0255,0.174,0.1995,0.146895488268,0.0255,0.174,0.1995,0.146895488268
34480000,101.091595617,149.633996709,76.8203950712,0.863,0.215,0.649,0.016,0.213,0.229,0.0745065120065,0.013,0.213,0.226,0.0609483109483,0.013,0.213,0.226,0.0609483109483,0.013,0.213,0.226,0.0609483109483,0.013,0.213,0.226,0.0609483109483,0.013,0.213,0.226,0.0609483109483
34480000,101.289978217,149.788925895,77.0405043779,0.8555,0.223,0.637,0.0135,0.214,0.2275,0.0635238603989,0.0135,0.214,0.2275,0.0635238603989,0.0135,0.214,0.2275,0.0635238603989,0.0135,0.214,0.2275,0.0635238603989,0.0135,0.214,0.2275,0.0635238603989,0.0135,0.212,0.2255,0.0638545482295
34480000,101.33738802,148.984497956,77.5138330526,0.861,0.2265,0.6345,0.018,0.2225,0.2405,0.0844888703345,0.018,0.2225,0.2405,0.0844888703345,0.018,0.2225,0.2405,0.0844888703345,0.0175,0.2185,0.236,0.084564419785,0.0175,0.2185,0.236,0.084564419785,0.0175,0.2185,0.236,0.084564419785
34480000,101.363971314,149.597110208,77.2474018675,0.7855,0.1945,0.5835,0.017,0.1885,0.2055,0.0908326999088,0.017,0.1885,0.2055,0.0908326999088,0.017,0.1875,0.2045,0.0913738254499,0.0155,0.1875,0.203,0.0832216515369,0.0155,0.1875,0.203,0.0832216515369,0.0155,0.1875,0.203,0.0832216515369
34480000,101.621207073,150.00020575,77.4317077349,0.801,0.204,0.597,0.017,0.2015,0.2185,0.0846222527473,0.017,0.2015,0.2185,0.0846222527473,0.017,0.1935,0.2105,0.0878273809524,0.017,0.1735,0.1905,0.0987922932331,0.017,0.1735,0.1905,0.0987922932331,0.017,0.1735,0.1905,0.0987922932331
34480000,102.258759843,150.147450985,78.3144142713,0.799,0.197,0.5965,0.0085,0.1875,0.196,0.0458674749164,0.0085,0.1875,0.196,0.0458674749164,0.0085,0.1875,0.196,0.0458674749164,0.0085,0.1875,0.196,0.0458674749164,0.0085,0.1875,0.196,0.0458674749164,0.0085,0.1875,0.196,0.0458674749164
34480000,102.521773402,150.195640453,78.6848398763,0.7875,0.198,0.595,0.013,0.191,0.204,0.0677445652174,0.009,0.191,0.2,0.0469112318841,0.0085,0.191,0.1995,0.0444112318841,0.0085,0.191,0.1995,0.0444112318841,0.0085,0.175,0.1835,0.0485778985507,0.0085,0.175,0.1835,0.0485778985507
34480000,102.587054844,143.007166323,82.3769991044,0.7165,0.1775,0.5155,0.013,0.1755,0.1885,0.0714199561404,0.013,0.1755,0.1885,0.0714199561404,0.013,0.1755,0.1885,0.0714199561404,0.013,0.1755,0.1885,0.0714199561404,0.013,0.1755,0.1885,0.0714199561404,0.013,0.1755,0.1885,0.0714199561404
34480000,102.854054923,150.330468708,79.1158480302,0.796,0.205,0.545,0.008,0.1985,0.2065,0.0404464285714,0.008,0.1985,0.2065,0.0404464285714,0.008,0.1985,0.2065,0.0404464285714,0.008,0.1985,0.2065,0.0404464285714,0.008,0.1985,0.2065,0.0404464285714,0.008,0.1985,0.2065,0.0404464285714
34480000,103.063250825,150.167863306,79.5109445842,0.7975,0.199,0.5985,0.0195,0.1825,0.202,0.109525700749,0.0195,0.1825,0.202,0.109525700749,0.0195,0.1825,0.202,0.109525700749,0.0195,0.1825,0.202,0.109525700749,0.0195,0.1825,0.202,0.109525700749,0.0195,0.1825,0.202,0.109525700749
34480000,103.115536189,150.081430708,79.6325889293,0.7685,0.202,0.569,0.015,0.198,0.213,0.0757302118172,0.015,0.198,0.213,0.0757302118172,0.015,0.198,0.213,0.0757302118172,0.015,0.198,0.213,0.0757302118172,0.015,0.198,0.213,0.0757302118172,0.015,0.198,0.213,0.0757302118172
34480000,103.163931017,150.149864267,79.670964392,0.8185,0.1995,0.6095,0.0345,0.1975,0.232,0.174384057971,0.0345,0.1975,0.232,0.174384057971,0.033,0.1975,0.2305,0.167172519509,0.033,0.1975,0.2305,0.167172519509,0.025,0.1975,0.2225,0.125505852843,0.025,0.1975,0.2225,0.125505852843
34480000,103.315675136,150.138056801,79.9044843031,0.804,0.208,0.601,0.0375,0.1975,0.235,0.190061315496,0.0375,0.197,0.2345,0.190678904429,0.0375,0.197,0.2345,0.190678904429,0.0335,0.195,0.2285,0.170751368197,0.0335,0.195,0.2285,0.170751368197,0.0335,0.1945,0.228,0.171427775123
34480000,103.713372043,150.311001657,80.4145572363,0.7925,0.1995,0.5885,0.0195,0.197,0.2165,0.100520833333,0.0185,0.197,0.2155,0.0953125,0.0185,0.197,0.2155,0.0953125,0.0185,0.197,0.2155,0.0953125,0.0185,0.196,0.2145,0.0967329545455,0.0185,0.196,0.2145,0.0967329545455
34480000,104.376904296,150.286628986,81.4220419518,0.7785,0.2345,0.5865,0.0105,0.2155,0.226,0.0551508340012,0.0105,0.2155,0.226,0.0551508340012,0.0105,0.2155,0.226,0.0551508340012,0.0105,0.2155,0.226,0.0551508340012,0.01,0.2115,0.2215,0.0531079427819,0.01,0.2115,0.2215,0.0531079427819
34480000,104.69505339,150.230851562,81.9271543039,0.8005,0.2195,0.5885,0.0245,0.2005,0.225,0.126353185505,0.023,0.2005,0.2235,0.118540685505,0.023,0.2005,0.2235,0.118540685505,0.023,0.2005,0.2235,0.118540685505,0.015,0.2005,0.2155,0.0768740188383,0.015,0.2005,0.2155,0.0768740188383
34480000,105.29626143,149.787105534,83.0508393785,0.7725,0.1955,0.5775,0.01,0.1855,0.1955,0.0554277027797,0.01,0.1855,0.1955,0.0554277027797,0.01,0.1855,0.1955,0.0554277027797,0.01,0.1855,0.1955,0.0554277027797,0.01,0.1855,0.1955,0.0554277027797,0.01,0.1855,0.1955,0.0554277027797
34480000,105.386953672,150.238749842,82.9610555863,0.862,0.207,0.562,0.022,0.1815,0.2035,0.129360019509,0.022,0.1815,0.2035,0.129360019509,0.022,0.1815,0.2035,0.129360019509,0.022,0.1815,0.2035,0.129360019509,0.018,0.1815,0.1995,0.104360019509,0.018,0.1815,0.1995,0.104360019509
34480000,106.841722267,150.427368255,85.0488992725,0.75,0.1955,0.555,0.0125,0.1945,0.207,0.0647418478261,0.0125,0.1945,0.207,0.0647418478261,0.0125,0.1945,0.207,0.0647418478261,0.0125,0.1945,0.207,0.0647418478261,0.0125,0.1945,0.207,0.0647418478261,0.0125,0.1945,0.207,0.0647418478261
34600000,94.6599263787,137.456673855,73.2615526405,0.793,0.248,0.586,0.023,0.2395,0.2625,0.118049199085,0.023,0.2395,0.2625,0.118049199085,0.023,0.2395,0.2625,0.118049199085,0.023,0.2395,0.2625,0.118049199085,0.02,0.2395,0.2595,0.101744851259,0.02,0.2395,0.2595,0.101744851259
34600000,94.8559928249,138.552462795,73.0077578399,0.832,0.416,0.632,0.04,0.408,0.448,0.0980392156863,0.04,0.408,0.448,0.0980392156863,0.04,0.408,0.448,0.0980392156863,0.04,0.408,0.448,0.0980392156863,0.04,0.408,0.448,0.0980392156863,0.04,0.408,0.448,0.0980392156863
34600000,95.7243239469,138.918594545,74.1271886478,0.778,0.1865,0.592,0.0115,0.173,0.1845,0.0587392870288,0.0115,0.173,0.1845,0.0587392870288,0.009,0.173,0.182,0.0507264665159,0.009,0.173,0.182,0.0507264665159,0.009,0.173,0.182,0.0507264665159,0.009,0.173,0.182,0.0507264665159
34600000,96.1876329664,139.119433544,74.7217326773,0.7385,0.1845,0.549,0.0095,0.1735,0.183,0.0544707556936,0.0095,0.1735,0.183,0.0544707556936,0.0095,0.1735,0.183,0.0544707556936,0.0095,0.172,0.1815,0.0550222262818,0.0095,0.171,0.1805,0.0557460768398,0.0095,0.171,0.1805,0.0557460768398
34600000,97.5495764243,141.56960859,75.5395603412,0.788,0.183,0.597,0.021,0.1745,0.1955,0.118080357143,0.021,0.1745,0.1955,0.118080357143,0.021,0.1725,0.1935,0.119974296537,0.021,0.1725,0.1935,0.119974296537,0.021,0.1725,0.1935,0.119974296537,0.017,0.1725,0.1895,0.0949742965368
34600000,97.723873844,143.081736806,75.0449423629,0.762,0.182,0.576,0.0185,0.1775,0.196,0.102819734613,0.0185,0.1775,0.196,0.102819734613,0.0185,0.1775,0.196,0.102819734613,0.0185,0.1775,0.196,0.102819734613,0.0185,0.1775,0.196,0.102819734613,0.0185,0.1775,0.196,0.102819734613
34600000,97.799281873,143.743729098,74.8270582605,0.777,0.1735,0.5975,0.029,0.169,0.198,0.172077922078,0.029,0.1685,0.1975,0.172673160173,0.029,0.1685,0.1975,0.172673160173,0.029,0.1685,0.1975,0.172673160173,0.029,0.1685,0.1975,0.172673160173,0.029,0.1685,0.1975,0.172673160173
34600000,97.808031279,143.522764843,74.9506644968,0.802,0.1885,0.6115,0.0125,0.1875,0.2,0.0676774538867,0.0125,0.1865,0.199,0.0683876811594,0.0125,0.186,0.1985,0.0687935253153,0.0125,0.186,0.1985,0.0687935253153,0.0125,0.186,0.1985,0.0687935253153,0.0125,0.186,0.1985,0.0687935253153
34600000,97.8536878521,142.055822648,75.7526204542,0.76,0.182,0.5765,0.0095,0.173,0.1825,0.0555194805195,0.0095,0.173,0.1825,0.0555194805195,0.0095,0.173,0.1825,0.0555194805195,0.0095,0.1705,0.18,0.0564495400433,0.0095,0.1705,0.18,0.0564495400433,0.0095,0.1705,0.18,0.0564495400433
34600000,97.893729172,141.652179934,76.0145037912,0.7545,0.175,0.559,0.0145,0.1645,0.179,0.0895507853131,0.014,0.1645,0.1785,0.0864257853131,0.014,0.1645,0.1785,0.0864257853131,0.014,0.1645,0.1785,0.0864257853131,0.014,0.162,0.176,0.0885091186464,0.014,0.162,0.176,0.0885091186464
34600000,98.0710430469,143.618018385,75.2975553777,0.7695,0.1775,0.591,0.034,0.175,0.209,0.193506864989,0.03,0.175,0.205,0.170779592261,0.03,0.175,0.205,0.170779592261,0.03,0.175,0.205,0.170779592261,0.03,0.175,0.205,0.170779592261,0.03,0.175,0.205,0.170779592261
34600000,98.3016773047,143.190446163,75.8572928754,0.7585,0.1835,0.57,0.019,0.175,0.194,0.108258928571,0.019,0.175,0.194,0.108258928571,0.011,0.175,0.186,0.0628043831169,0.011,0.175,0.186,0.0628043831169,0.011,0.175,0.186,0.0628043831169,0.01,0.175,0.185,0.0571225649351
34600000,98.6100917771,142.794084885,76.5180952229,0.7585,0.1895,0.57,0.0185,0.181,0.1995,0.104324494949,0.0185,0.181,0.1995,0.104324494949,0.0185,0.181,0.1995,0.104324494949,0.0185,0.181,0.1995,0.104324494949,0.0185,0.179,0.1975,0.105406746032,0.0185,0.179,0.1975,0.105406746032
34600000,98.6107931324,143.477955364,76.1772120167,0.7765,0.183,0.5945,0.0355,0.172,0.2075,0.207115800866,0.0355,0.172,0.2075,0.207115800866,0.0355,0.172,0.2075,0.207115800866,0.0355,0.172,0.2075,0.207115800866,0.032,0.172,0.204,0.187229437229,0.032,0.172,0.204,0.187229437229
34600000,98.6809681811,142.263201295,76.889851624,0.743,0.164,0.5575,0.026,0.1575,0.1835,0.163382889041,0.026,0.1575,0.1835,0.163382889041,0.026,0.1575,0.1835,0.163382889041,0.026,0.1575,0.1835,0.163382889041,0.026,0.1575,0.1835,0.163382889041,0.026,0.1575,0.1835,0.163382889041
34600000,98.8548111024,143.152918454,76.7057574268,0.7605,0.183,0.576,0.011,0.1755,0.1865,0.0624000094109,0.011,0.1755,0.1865,0.0624000094109,0.011,0.1755,0.1865,0.0624000094109,0.011,0.1755,0.1865,0.0624000094109,0.011,0.1755,0.1865,0.0624000094109,0.011,0.1755,0.1865,0.0624000094109
34600000,99.3381674282,144.355177136,76.8296625744,0.7545,0.1865,0.57,0.028,0.184,0.212,0.152184206192,0.028,0.184,0.212,0.152184206192,0.028,0.184,0.212,0.152184206192,0.028,0.184,0.212,0.152184206192,0.028,0.184,0.212,0.152184206192,0.016,0.184,0.2,0.086966814888
34600000,99.3490009578,143.781663711,77.1326695812,0.767,0.1875,0.5815,0.0185,0.1835,0.202,0.098474555336,0.0185,0.1835,0.202,0.098474555336,0.0185,0.1835,0.202,0.098474555336,0.0185,0.1835,0.202,0.098474555336,0.0185,0.1835,0.202,0.098474555336,0.0185,0.1835,0.202,0.098474555336
34600000,99.7231200953,144.257779147,77.4557905692,0.723,0.177,0.547,0.012,0.161,0.173,0.0747159090909,0.012,0.161,0.173,0.0747159090909,0.012,0.161,0.173,0.0747159090909,0.012,0.161,0.173,0.0747159090909,0.012,0.161,0.173,0.0747159090909,0.012,0.161,0.173,0.0747159090909
34600000,99.7366480764,144.502853464,77.3535453828,0.755,0.1805,0.565,0.016,0.178,0.194,0.0899209486166,0.016,0.178,0.194,0.0899209486166,0.016,0.178,0.194,0.0899209486166,0.016,0.178,0.194,0.0899209486166,0.016,0.177,0.193,0.0904385469603,0.016,0.177,0.193,0.0904385469603
34600000,99.8269328305,143.895363855,77.7927173182,0.7575,0.157,0.561,0.0105,0.146,0.1565,0.073917025004,0.0105,0.146,0.1565,0.073917025004,0.0105,0.146,0.1565,0.073917025004,0.0105,0.146,0.1565,0.073917025004,0.0105,0.146,0.1565,0.073917025004,0.0105,0.1455,0.156,0.0740405427905
34600000,100.123241325,145.843407348,77.2631583132,0.753,0.1865,0.564,0.0165,0.1835,0.2,0.0899209486166,0.0165,0.1835,0.2,0.0899209486166,0.0165,0.1835,0.2,0.0899209486166,0.0125,0.1835,0.196,0.0681818181818,0.0125,0.1835,0.196,0.0681818181818,0.0125,0.1835,0.196,0.0681818181818
34600000,100.34933582,145.687189967,77.6804087461,0.71,0.181,0.5275,0.011,0.166,0.177,0.0653256164126,0.011,0.166,0.177,0.0653256164126,0.011,0.166,0.177,0.0653256164126,0.011,0.166,0.177,0.0653256164126,0.011,0.166,0.177,0.0653256164126,0.011,0.166,0.177,0.0653256164126
34600000,100.385944312,145.567765744,77.795033596,0.764,0.1865,0.575,0.014,0.1775,0.1915,0.0803432927675,0.014,0.1775,0.1915,0.0803432927675,0.014,0.1775,0.1915,0.0803432927675,0.014,0.1775,0.1915,0.0803432927675,0.014,0.1615,0.1755,0.0894966108453,0.014,0.1575,0.1715,0.0924205874535
34600000,100.852399191,146.425638421,78.0657795763,0.785,0.188,0.591,0.0245,0.185,0.2095,0.135581357049,0.0245,0.185,0.2095,0.135581357049,0.0245,0.185,0.2095,0.135581357049,0.0245,0.185,0.2095,0.135581357049,0.0245,0.185,0.2095,0.135581357049,0.0245,0.185,0.2095,0.135581357049
34600000,100.998400545,145.186533914,78.9043338607,0.74,0.1805,0.562,0.018,0.179,0.197,0.0993759410879,0.018,0.179,0.197,0.0993759410879,0.018,0.179,0.197,0.0993759410879,0.018,0.179,0.197,0.0993759410879,0.018,0.175,0.193,0.10062907392,0.0165,0.175,0.1915,0.0921063466473
34600000,101.174997979,146.710982475,78.4070057312,0.7595,0.183,0.5745,0.0105,0.161,0.1715,0.0638161506368,0.0085,0.161,0.1695,0.0529465854194,0.0085,0.16,0.1685,0.0532306763285,0.0085,0.16,0.1685,0.0532306763285,0.0085,0.16,0.1685,0.0532306763285,0.0085,0.16,0.1685,0.0532306763285
34600000,101.30932459,146.453713861,78.7371299549,0.7165,0.189,0.534,0.0205,0.1885,0.209,0.108489789196,0.0205,0.1885,0.209,0.108489789196,0.0205,0.1885,0.209,0.108489789196,0.0205,0.1885,0.209,0.108489789196,0.0205,0.1885,0.209,0.108489789196,0.0205,0.1885,0.209,0.108489789196
34600000,101.698312306,147.669416702,78.7127601079,0.723,0.18,0.5385,0.0135,0.176,0.1895,0.0766045548654,0.0135,0.176,0.1895,0.0766045548654,0.0095,0.176,0.1855,0.0538772821382,0.0095,0.176,0.1855,0.0538772821382,0.0095,0.176,0.1855,0.0538772821382,0.0095,0.176,0.1855,0.0538772821382
34600000,101.800421042,146.546245912,79.4275086073,0.7335,0.1905,0.55,0.013,0.185,0.198,0.0721463057347,0.013,0.185,0.198,0.0721463057347,0.013,0.185,0.198,0.0721463057347,0.013,0.185,0.198,0.0721463057347,0.013,0.185,0.198,0.0721463057347,0.013,0.185,0.198,0.0721463057347
34600000,102.1278836,147.621348806,79.3811509976,0.755,0.19,0.569,0.015,0.1885,0.2035,0.0804100790514,0.015,0.1885,0.2035,0.0804100790514,0.015,0.1885,0.2035,0.0804100790514,0.015,0.1845,0.1995,0.0813158761528,0.015,0.1845,0.1995,0.0813158761528,0.015,0.1845,0.1995,0.0813158761528
34600000,102.992566381,148.506856477,80.2354213334,0.717,0.187,0.532,0.016,0.1845,0.2005,0.0869079968944,0.016,0.1845,0.2005,0.0869079968944,0.016,0.1845,0.2005,0.0869079968944,0.016,0.1845,0.2005,0.0869079968944,0.016,0.1845,0.2005,0.0869079968944,0.016,0.1845,0.2005,0.0869079968944
34600000,103.203863665,149.521305334,80.0451428307,0.7685,0.196,0.556,0.013,0.1715,0.1845,0.0727696078431,0.013,0.1715,0.1845,0.0727696078431,0.013,0.1715,0.1845,0.0727696078431,0.0125,0.1715,0.184,0.0702696078431,0.0125,0.1715,0.184,0.0702696078431,0.0125,0.1715,0.184,0.0702696078431
34600000,103.385794326,148.966043234,80.5956698725,0.7265,0.177,0.5425,0.009,0.172,0.181,0.0520627470356,0.009,0.17,0.179,0.0530979437229,0.009,0.17,0.179,0.0530979437229,0.009,0.17,0.179,0.0530979437229,0.009,0.17,0.179,0.0530979437229,0.009,0.17,0.179,0.0530979437229
34600000,103.883871184,149.712789181,80.9694121853,0.718,0.19,0.5305,0.0145,0.188,0.2025,0.0747903138528,0.0115,0.187,0.1985,0.0643127705628,0.0115,0.187,0.1985,0.0643127705628,0.0115,0.187,0.1985,0.0643127705628,0.0115,0.187,0.1985,0.0643127705628,0.0115,0.1865,0.198,0.0644480519481
34600000,104.057997046,149.813999871,81.1799956334,0.741,0.1975,0.544,0.0155,0.1905,0.206,0.0856515766842,0.0135,0.1905,0.204,0.0747820114668,0.0135,0.1905,0.204,0.0747820114668,0.0135,0.1905,0.204,0.0747820114668,0.0135,0.1885,0.202,0.0752996098105,0.0135,0.1885,0.202,0.0752996098105
34600000,104.265233568,149.07623463,81.8597330371,0.711,0.1685,0.5295,0.0125,0.16,0.1725,0.0770790200138,0.0125,0.159,0.1715,0.0775966183575,0.0125,0.157,0.1695,0.0793823326432,0.0125,0.157,0.1695,0.0793823326432,0.0125,0.157,0.1695,0.0793823326432,0.0125,0.157,0.1695,0.0793823326432
34600000,104.494399802,149.803099858,81.8400497739,0.766,0.195,0.559,0.0105,0.1935,0.204,0.0538722826087,0.0105,0.1935,0.204,0.0538722826087,0.0105,0.1935,0.204,0.0538722826087,0.0105,0.1935,0.204,0.0538722826087,0.0105,0.1935,0.204,0.0538722826087,0.0105,0.1935,0.204,0.0538722826087
34600000,105.320379999,150.180944871,82.8900975627,0.6855,0.1805,0.5075,0.014,0.168,0.182,0.0930743360377,0.014,0.168,0.182,0.0930743360377,0.014,0.168,0.182,0.0930743360377,0.014,0.168,0.182,0.0930743360377,0.014,0.168,0.182,0.0930743360377,0.014,0.168,0.182,0.0930743360377
34640000,100.446744446,143.002898241,79.1686675489,0.811,0.1905,0.6,0.0335,0.178,0.2115,0.185536803966,0.0335,0.178,0.2115,0.185536803966,0.0135,0.178,0.1915,0.0768411517925,0.0125,0.178,0.1905,0.0716328184592,0.0125,0.178,0.1905,0.0716328184592,0.0125,0.178,0.1905,0.0716328184592
34640000,103.35658754,147.913936252,81.0779131839,0.7815,0.183,0.5935,0.026,0.1765,0.2025,0.147261140128,0.026,0.176,0.202,0.147374364766,0.026,0.176,0.202,0.147374364766,0.026,0.172,0.198,0.151133763262,0.026,0.172,0.198,0.151133763262,0.026,0.172,0.198,0.151133763262
34640000,103.891825282,148.908273232,81.3836013065,0.7955,0.1845,0.5995,0.013,0.175,0.188,0.0734821428571,0.0115,0.175,0.1865,0.0659821428571,0.0115,0.175,0.1865,0.0659821428571,0.0115,0.155,0.1665,0.0743154761905,0.0115,0.155,0.1665,0.0743154761905,0.0115,0.155,0.1665,0.0743154761905
34640000,104.9275198,148.50429695,83.1391312247,0.8095,0.1835,0.622,0.019,0.1805,0.1995,0.10473937747,0.015,0.1805,0.1955,0.0820121047431,0.015,0.1805,0.1955,0.0820121047431,0.015,0.1805,0.1955,0.0820121047431,0.015,0.1805,0.1955,0.0820121047431,0.015,0.1805,0.1955,0.0820121047431
34640000,104.959425583,148.172562086,83.3528573322,0.783,0.179,0.596,0.023,0.1705,0.1935,0.141096967963,0.023,0.1705,0.1935,0.141096967963,0.023,0.1705,0.1935,0.141096967963,0.023,0.1705,0.1935,0.141096967963,0.023,0.1705,0.1935,0.141096967963,0.023,0.1705,0.1935,0.141096967963
34640000,105.145709226,149.756361625,82.840383027,0.8285,0.25,0.6115,0.013,0.2485,0.2615,0.0513401679842,0.013,0.2475,0.2605,0.0520503952569,0.013,0.2475,0.2605,0.0520503952569,0.013,0.2475,0.2605,0.0520503952569,0.012,0.2435,0.2555,0.046883156835,0.012,0.2435,0.2555,0.046883156835
34640000,105.408683642,149.633666581,83.2961921719,0.7995,0.19,0.6075,0.0085,0.183,0.1915,0.0464975845411,0.0085,0.183,0.1915,0.0464975845411,0.0085,0.183,0.1915,0.0464975845411,0.0085,0.182,0.1905,0.0467240338164,0.0085,0.182,0.1905,0.0467240338164,0.0085,0.182,0.1905,0.0467240338164
34640000,105.56930798,149.870146745,83.4188885969,0.765,0.1875,0.583,0.013,0.183,0.196,0.0763082592227,0.013,0.183,0.196,0.0763082592227,0.013,0.175,0.188,0.0782021986166,0.013,0.175,0.188,0.0782021986166,0.013,0.175,0.188,0.0782021986166,0.013,0.175,0.188,0.0782021986166
34640000,106.300862319,149.338949016,84.7818189708,0.796,0.198,0.605,0.015,0.1915,0.2065,0.078464673913,0.015,0.1915,0.2065,0.078464673913,0.015,0.1915,0.2065,0.078464673913,0.015,0.1915,0.2065,0.078464673913,0.015,0.1915,0.2065,0.078464673913,0.015,0.1915,0.2065,0.078464673913
34760000,99.8447457314,147.02306198,76.2555876069,0.746,0.1805,0.5695,0.021,0.1725,0.1935,0.120271033315,0.021,0.1725,0.1935,0.120271033315,0.021,0.1725,0.1935,0.120271033315,0.021,0.1725,0.1935,0.120271033315,0.0205,0.1725,0.193,0.117294842838,0.0205,0.1725,0.193,0.117294842838
34760000,100.123577977,147.785812403,76.2924607636,0.729,0.1905,0.5425,0.0155,0.1875,0.203,0.0832451063429,0.0155,0.1875,0.203,0.0832451063429,0.0155,0.1875,0.203,0.0832451063429,0.0155,0.1875,0.203,0.0832451063429,0.0155,0.1875,0.203,0.0832451063429,0.0155,0.1875,0.203,0.0832451063429
34760000,101.211561182,149.224143967,77.2052697904,0.7365,0.1835,0.5565,0.013,0.168,0.181,0.0833015024191,0.013,0.168,0.181,0.0833015024191,0.013,0.168,0.181,0.0833015024191,0.013,0.168,0.181,0.0833015024191,0.013,0.168,0.181,0.0833015024191,0.013,0.168,0.181,0.0833015024191
34760000,101.413618562,149.464723421,77.3880661317,0.7285,0.205,0.542,0.0105,0.1965,0.207,0.0556110556111,0.0105,0.1965,0.207,0.0556110556111,0.0105,0.196,0.2065,0.0556702412171,0.0105,0.196,0.2065,0.0556702412171,0.0105,0.196,0.2065,0.0556702412171,0.0105,0.196,0.2065,0.0556702412171
34760000,101.963893175,149.822079938,78.0347997939,0.722,0.166,0.542,0.013,0.1595,0.1725,0.0800346035543,0.013,0.1595,0.1725,0.0800346035543,0.013,0.1595,0.1725,0.0800346035543,0.011,0.1595,0.1705,0.0681298416496,0.011,0.1595,0.1705,0.0681298416496,0.011,0.1595,0.1705,0.0681298416496
34760000,102.083336013,149.845655905,78.2021760673,0.7365,0.183,0.553,0.038,0.176,0.214,0.215909090909,0.034,0.174,0.208,0.193813131313,0.026,0.174,0.2,0.148358585859,0.026,0.174,0.2,0.148358585859,0.026,0.174,0.2,0.148358585859,0.026,0.174,0.2,0.148358585859
34760000,102.628164622,143.605897431,82.1392982176,0.723,0.2515,0.491,0.014,0.2425,0.2565,0.0731124686717,0.0135,0.2425,0.256,0.0698229949875,0.0135,0.2425,0.256,0.0698229949875,0.0135,0.2425,0.256,0.0698229949875,0.0135,0.2425,0.256,0.0698229949875,0.0135,0.2425,0.256,0.0698229949875
34760000,103.03849681,150.184091102,79.4656996643,0.723,0.168,0.5455,0.039,0.157,0.196,0.243422459893,0.039,0.157,0.196,0.243422459893,0.039,0.154,0.193,0.245216718266,0.039,0.154,0.193,0.245216718266,0.039,0.154,0.193,0.245216718266,0.039,0.154,0.193,0.245216718266
34760000,103.14222965,149.314900873,80.055894038,0.723,0.1745,0.5555,0.0225,0.1675,0.19,0.133864490772,0.0205,0.1675,0.188,0.120706596036,0.0205,0.1675,0.188,0.120706596036,0.0205,0.1595,0.18,0.124215367965,0.0165,0.1595,0.176,0.101488095238,0.0165,0.1595,0.176,0.101488095238
34760000,103.207318273,150.396358658,79.6127980803,0.7215,0.1755,0.5455,0.0105,0.1695,0.18,0.061847120271,0.0105,0.1695,0.18,0.061847120271,0.0105,0.1695,0.18,0.061847120271,0.0085,0.169,0.1775,0.0501893939394,0.0085,0.169,0.1775,0.0501893939394,0.0085,0.169,0.1775,0.0501893939394
34760000,104.064677696,149.494040011,81.349996539,0.73,0.177,0.5505,0.0115,0.1765,0.188,0.0660643704122,0.0115,0.1765,0.188,0.0660643704122,0.0115,0.1765,0.188,0.0660643704122,0.0115,0.1765,0.188,0.0660643704122,0.0115,0.1745,0.186,0.0685706360764,0.0115,0.1745,0.186,0.0685706360764
34760000,104.538467399,147.483539803,83.0659311973,0.7115,0.1695,0.5425,0.0155,0.165,0.1805,0.0955321852061,0.0155,0.165,0.1805,0.0955321852061,0.0155,0.165,0.1805,0.0955321852061,0.0155,0.165,0.1805,0.0955321852061,0.0155,0.165,0.1805,0.0955321852061,0.0155,0.165,0.1805,0.0955321852061
34760000,105.559550326,149.655958065,83.5113464564,0.723,0.184,0.544,0.012,0.18,0.192,0.0662055335968,0.012,0.18,0.192,0.0662055335968,0.012,0.18,0.192,0.0662055335968,0.012,0.18,0.192,0.0662055335968,0.012,0.18,0.192,0.0662055335968,0.012,0.18,0.192,0.0662055335968
34760000,105.689432663,145.507782021,85.7802579846,0.7365,0.317,0.54,0.0205,0.3165,0.337,0.0765531097135,0.0205,0.3165,0.337,0.0765531097135,0.0205,0.3165,0.337,0.0765531097135,0.0205,0.3165,0.337,0.0765531097135,0.0205,0.3165,0.337,0.0765531097135,0.0205,0.3165,0.337,0.0765531097135
34760000,105.793862979,146.553609478,85.4139897287,0.707,0.212,0.5005,0.0185,0.1845,0.203,0.104467271235,0.0185,0.1845,0.203,0.104467271235,0.0185,0.1845,0.203,0.104467271235,0.0185,0.1845,0.203,0.104467271235,0.0185,0.1845,0.203,0.104467271235,0.0185,0.1845,0.203,0.104467271235
34760000,105.914694298,145.980858841,85.8816120272,0.713,0.2045,0.51,0.021,0.1925,0.2135,0.109832338733,0.021,0.1925,0.2135,0.109832338733,0.021,0.1925,0.2135,0.109832338733,0.021,0.1925,0.2135,0.109832338733,0.021,0.1925,0.2135,0.109832338733,0.021,0.1925,0.2135,0.109832338733
34760000,106.042901739,150.539442892,83.7946311625,0.713,0.1775,0.543,0.019,0.165,0.184,0.117200850137,0.019,0.165,0.184,0.117200850137,0.019,0.165,0.184,0.117200850137,0.019,0.165,0.184,0.117200850137,0.019,0.165,0.184,0.117200850137,0.019,0.165,0.184,0.117200850137
34760000,106.085746817,146.762297648,85.7474714017,0.715,0.1965,0.5165,0.0375,0.18,0.2175,0.211765010352,0.0375,0.18,0.2175,0.211765010352,0.0375,0.18,0.2175,0.211765010352,0.0375,0.176,0.2135,0.217976190476,0.0375,0.176,0.2135,0.217976190476,0.0375,0.176,0.2135,0.217976190476
34760000,106.246950943,146.014143847,86.363354491,0.7025,0.1965,0.504,0.014,0.1925,0.2065,0.0724053030303,0.014,0.1925,0.2065,0.0724053030303,0.014,0.1925,0.2065,0.0724053030303,0.014,0.1765,0.1905,0.0762148268398,0.014,0.1765,0.1905,0.0762148268398,0.014,0.1765,0.1905,0.0762148268398
34760000,106.375267295,150.3906682,84.3675668428,0.694,0.172,0.5295,0.029,0.1665,0.1955,0.178905597327,0.029,0.1665,0.1955,0.178905597327,0.029,0.1665,0.1955,0.178905597327,0.029,0.166,0.195,0.179271094403,0.029,0.166,0.195,0.179271094403,0.029,0.166,0.195,0.179271094403
34760000,107.098911998,150.439069159,85.4288334173,0.747,0.1825,0.5735,0.023,0.182,0.205,0.125988142292,0.023,0.182,0.205,0.125988142292,0.023,0.182,0.205,0.125988142292,0.023,0.182,0.205,0.125988142292,0.023,0.182,0.205,0.125988142292,0.023,0.182,0.205,0.125988142292
34760000,107.275328018,150.237480506,85.7942517734,0.709,0.1735,0.5335,0.024,0.1525,0.1765,0.170746594092,0.008,0.1525,0.1605,0.0530995352687,0.008,0.1525,0.1605,0.0530995352687,0.008,0.1445,0.1525,0.0570211038961,0.008,0.1445,0.1525,0.0570211038961,0.008,0.1445,0.1525,0.0570211038961
34760000,107.53289197,149.120926012,86.7388749483,0.722,0.1965,0.5255,0.0305,0.192,0.2225,0.159506688963,0.0305,0.192,0.2225,0.159506688963,0.0305,0.192,0.2225,0.159506688963,0.0305,0.192,0.2225,0.159506688963,0.0305,0.192,0.2225,0.159506688963,0.0225,0.192,0.2145,0.119506688963
34760000,107.584871725,150.131164985,86.3117250946,0.7635,0.1795,0.59,0.019,0.1675,0.1865,0.112607832988,0.019,0.1675,0.1865,0.112607832988,0.015,0.1675,0.1825,0.0876078329883,0.015,0.1675,0.1825,0.0876078329883,0.015,0.1675,0.1825,0.0876078329883,0.015,0.1675,0.1825,0.0876078329883
34760000,107.739120487,150.189377671,86.5139918947,0.766,0.1815,0.5885,0.02,0.1765,0.1965,0.110733695652,0.02,0.1765,0.1965,0.110733695652,0.02,0.1765,0.1965,0.110733695652,0.02,0.1765,0.1965,0.110733695652,0.018,0.1765,0.1945,0.0998641304348,0.018,0.1765,0.1945,0.0998641304348
34760000,107.745612303,150.307691706,86.4645726014,0.7395,0.178,0.5625,0.016,0.177,0.193,0.0904620741577,0.016,0.177,0.193,0.0904620741577,0.016,0.177,0.193,0.0904620741577,0.016,0.177,0.193,0.0904620741577,0.016,0.177,0.193,0.0904620741577,0.016,0.171,0.187,0.0937229437229
34760000,107.817285108,148.330736135,87.5605595951,0.714,0.198,0.497,0.0095,0.1825,0.192,0.0521031027145,0.0095,0.1825,0.192,0.0521031027145,0.0095,0.1825,0.192,0.0521031027145,0.0095,0.1765,0.186,0.0535911979526,0.0095,0.1765,0.186,0.0535911979526,0.0095,0.1765,0.186,0.0535911979526
34760000,107.832971686,148.17615593,87.6613795632,0.7945,0.2095,0.592,0.0275,0.2035,0.231,0.135720879362,0.0275,0.2035,0.231,0.135720879362,0.0275,0.2035,0.231,0.135720879362,0.0275,0.2035,0.231,0.135720879362,0.0275,0.2035,0.231,0.135720879362,0.0275,0.2035,0.231,0.135720879362
34760000,108.212954422,150.643122513,86.9978703768,0.655,0.1955,0.495,0.014,0.191,0.205,0.078547705314,0.014,0.189,0.203,0.0788350616358,0.014,0.189,0.203,0.0788350616358,0.014,0.189,0.203,0.0788350616358,0.014,0.189,0.203,0.0788350616358,0.014,0.189,0.203,0.0788350616358
34760000,108.301880829,150.248875134,87.3283836764,0.6915,0.176,0.5165,0.0155,0.1735,0.189,0.0891774891775,0.0155,0.1735,0.189,0.0891774891775,0.0155,0.1735,0.189,0.0891774891775,0.0155,0.1735,0.189,0.0891774891775,0.0155,0.1735,0.189,0.0891774891775,0.0155,0.1735,0.189,0.0891774891775
34760000,108.32670558,148.029773526,88.4751716069,0.7395,0.1775,0.551,0.0125,0.1645,0.177,0.0784414872408,0.0125,0.1645,0.177,0.0784414872408,0.0125,0.1645,0.177,0.0784414872408,0.0125,0.1645,0.177,0.0784414872408,0.0125,0.1645,0.177,0.0784414872408,0.0125,0.1645,0.177,0.0784414872408
34760000,108.382922282,150.052832196,87.5479673249,0.7545,0.182,0.5705,0.0145,0.174,0.1885,0.0826392810088,0.0145,0.174,0.1885,0.0826392810088,0.0145,0.174,0.1885,0.0826392810088,0.0135,0.174,0.1875,0.0772044984002,0.0135,0.174,0.1875,0.0772044984002,0.0135,0.174,0.1875,0.0772044984002
34760000,108.55377395,150.028778127,87.8162718622,0.7045,0.177,0.5255,0.0195,0.172,0.1915,0.111879485646,0.0195,0.1715,0.191,0.111992710284,0.0195,0.1715,0.191,0.111992710284,0.0195,0.1715,0.191,0.111992710284,0.0195,0.1715,0.191,0.111992710284,0.0195,0.1715,0.191,0.111992710284
34760000,108.984609245,148.666388207,89.1437197638,0.688,0.201,0.49,0.0185,0.189,0.2075,0.0959782608696,0.0185,0.189,0.2075,0.0959782608696,0.0185,0.189,0.2075,0.0959782608696,0.0185,0.189,0.2075,0.0959782608696,0.0185,0.189,0.2075,0.0959782608696,0.0185,0.189,0.2075,0.0959782608696
34760000,109.205306135,150.158471648,88.7287233787,0.7295,0.1735,0.5545,0.0095,0.1625,0.172,0.058887987013,0.0095,0.1625,0.172,0.058887987013,0.0095,0.1625,0.172,0.058887987013,0.0095,0.1625,0.172,0.058887987013,0.0095,0.1625,0.172,0.058887987013,0.0095,0.1625,0.172,0.058887987013
34760000,109.433869606,149.50275029,89.3994292638,0.698,0.2055,0.496,0.0125,0.197,0.2095,0.0632162764771,0.0125,0.197,0.2095,0.0632162764771,0.0125,0.197,0.2095,0.0632162764771,0.0125,0.197,0.2095,0.0632162764771,0.0125,0.197,0.2095,0.0632162764771,0.0125,0.197,0.2095,0.0632162764771
34760000,109.479550488,150.479060251,88.9797956069,0.6615,0.171,0.498,0.009,0.1605,0.1695,0.0566387869377,0.009,0.1605,0.1695,0.0566387869377,0.008,0.1605,0.1685,0.0506864059853,0.008,0.1605,0.1685,0.0506864059853,0.008,0.1605,0.1685,0.0506864059853,0.008,0.1605,0.1685,0.0506864059853
34760000,109.493686635,148.395747006,90.0426564494,0.6765,0.2195,0.475,0.0185,0.218,0.2365,0.0859317793721,0.0185,0.218,0.2365,0.0859317793721,0.0185,0.218,0.2365,0.0859317793721,0.0185,0.218,0.2365,0.0859317793721,0.0185,0.218,0.2365,0.0859317793721,0.0185,0.208,0.2265,0.0882211566615
34760000,109.52202838,150.178851943,89.1936165985,0.7655,0.179,0.5805,0.015,0.169,0.184,0.0888938007073,0.015,0.169,0.184,0.0888938007073,0.015,0.169,0.184,0.0888938007073,0.015,0.169,0.184,0.0888938007073,0.015,0.169,0.184,0.0888938007073,0.015,0.169,0.184,0.0888938007073
34760000,109.894696412,149.900476917,89.8918061598,0.711,0.2105,0.517,0.0245,0.2105,0.235,0.12103273299,0.0125,0.2105,0.223,0.0610327329903,0.0125,0.2105,0.223,0.0610327329903,0.0125,0.2105,0.223,0.0610327329903,0.0125,0.2105,0.223,0.0610327329903,0.012,0.2105,0.2225,0.0598534877073
34800000,102.30907994,137.333561243,84.7968392877,0.5105,0.201,0.3665,0.013,0.1975,0.2105,0.063786268556,0.013,0.1975,0.2105,0.063786268556,0.013,0.1975,0.2105,0.063786268556,0.013,0.1975,0.2105,0.063786268556,0.013,0.1975,0.2105,0.063786268556,0.013,0.1975,0.2105,0.063786268556
34800000,103.665599908,148.272022068,81.3623888275,0.6815,0.1775,0.4995,0.03,0.1655,0.1955,0.179034357138,0.0275,0.1655,0.193,0.165447400616,0.0275,0.1655,0.193,0.165447400616,0.0155,0.1655,0.181,0.0940188291876,0.0155,0.1655,0.181,0.0940188291876,0.0155,0.1655,0.181,0.0940188291876
34800000,104.510698085,144.588587741,84.471753257,0.6705,0.1915,0.4855,0.036,0.183,0.219,0.192686766736,0.036,0.183,0.219,0.192686766736,0.036,0.183,0.219,0.192686766736,0.036,0.179,0.215,0.198615620491,0.036,0.179,0.215,0.198615620491,0.036,0.167,0.203,0.220146720969
34800000,104.603614933,148.816857371,82.4969937132,0.6795,0.1775,0.4985,0.023,0.176,0.199,0.132716242091,0.023,0.176,0.199,0.132716242091,0.023,0.176,0.199,0.132716242091,0.023,0.176,0.199,0.132716242091,0.023,0.176,0.199,0.132716242091,0.023,0.176,0.199,0.132716242091
34800000,105.014097306,147.732362956,83.6549644809,0.654,0.2395,0.4845,0.021,0.234,0.255,0.100169953788,0.021,0.234,0.255,0.100169953788,0.021,0.234,0.255,0.100169953788,0.0185,0.234,0.2525,0.0837225853673,0.0185,0.234,0.2525,0.0837225853673,0.0165,0.234,0.2505,0.0744633261081
34800000,105.262721486,145.125164266,85.3315000956,0.6875,0.339,0.49,0.0225,0.3295,0.352,0.0995892770283,0.0225,0.3295,0.352,0.0995892770283,0.0225,0.3295,0.352,0.0995892770283,0.0225,0.3295,0.352,0.0995892770283,0.0225,0.3285,0.351,0.0999899180539,0.0225,0.3285,0.351,0.0999899180539
34800000,106.343937382,148.12241748,85.4546973324,0.688,0.264,0.489,0.0115,0.255,0.2665,0.053455944462,0.0115,0.255,0.2665,0.053455944462,0.0115,0.255,0.2665,0.053455944462,0.0115,0.255,0.2665,0.053455944462,0.0115,0.255,0.2665,0.053455944462,0.0115,0.255,0.2665,0.053455944462
34800000,107.077170175,150.071667052,85.5799217369,0.676,0.1915,0.3615,0.017,0.164,0.181,0.103761753239,0.017,0.164,0.181,0.103761753239,0.017,0.164,0.181,0.103761753239,0.017,0.164,0.181,0.103761753239,0.017,0.164,0.181,0.103761753239,0.017,0.164,0.181,0.103761753239
34800000,107.385242534,148.614047813,86.7708398943,0.655,0.186,0.472,0.019,0.181,0.2,0.105924736495,0.019,0.181,0.2,0.105924736495,0.019,0.181,0.2,0.105924736495,0.019,0.181,0.2,0.105924736495,0.019,0.181,0.2,0.105924736495,0.019,0.18,0.199,0.106398221344
34800000,107.926868145,149.985665481,86.8974694761,0.643,0.268,0.4245,0.0165,0.263,0.2795,0.0613407953761,0.0165,0.263,0.2795,0.0613407953761,0.0165,0.263,0.2795,0.0613407953761,0.0165,0.263,0.2795,0.0613407953761,0.0165,0.263,0.2795,0.0613407953761,0.0165,0.263,0.2795,0.0613407953761
34800000,108.323573864,149.946108803,87.5123063943,0.671,0.2695,0.4515,0.017,0.261,0.278,0.0836360254329,0.017,0.261,0.278,0.0836360254329,0.017,0.261,0.278,0.0836360254329,0.017,0.261,0.278,0.0836360254329,0.017,0.261,0.278,0.0836360254329,0.017,0.261,0.278,0.0836360254329
34800000,108.370841137,150.364383442,87.3740699846,0.6405,0.238,0.4345,0.0085,0.229,0.2375,0.0385432330827,0.0085,0.229,0.2375,0.0385432330827,0.0085,0.229,0.2375,0.0385432330827,0.0085,0.229,0.2375,0.0385432330827,0.0085,0.229,0.2375,0.0385432330827,0.0085,0.229,0.2375,0.0385432330827
34800000,110.246737706,148.802526219,90.9688434499,0.5665,0.192,0.3425,0.026,0.19,0.216,0.133102766798,0.026,0.19,0.216,0.133102766798,0.026,0.19,0.216,0.133102766798,0.026,0.19,0.216,0.133102766798,0.026,0.19,0.216,0.133102766798,0.026,0.19,0.216,0.133102766798
34840000,89.9502446153,127.480130763,71.1853015415,0.696,0.166,0.5295,0.014,0.166,0.18,0.0849161255411,0.013,0.166,0.179,0.0792343073593,0.013,0.166,0.179,0.0792343073593,0.013,0.166,0.179,0.0792343073593,0.013,0.158,0.171,0.0847898629149,0.013,0.158,0.171,0.0847898629149
34840000,92.0478708636,128.314247419,73.9146825859,0.673,0.1765,0.491,0.017,0.1705,0.1875,0.100278085282,0.017,0.1705,0.1875,0.100278085282,0.017,0.1705,0.1875,0.100278085282,0.015,0.1705,0.1855,0.0883733233776,0.015,0.1705,0.1855,0.0883733233776,0.015,0.1705,0.1855,0.0883733233776
34840000,92.4726114636,130.360286627,73.528773882,0.6855,0.178,0.504,0.0185,0.1725,0.191,0.108269376505,0.0185,0.1725,0.191,0.108269376505,0.0185,0.1665,0.185,0.11153024607,0.0185,0.1665,0.185,0.11153024607,0.0185,0.1665,0.185,0.11153024607,0.0185,0.1665,0.185,0.11153024607
34840000,92.5549875221,130.461885986,73.6015382904,0.6895,0.1785,0.509,0.016,0.1755,0.1915,0.0951428100885,0.016,0.1755,0.1915,0.0951428100885,0.016,0.174,0.19,0.0976229688186,0.016,0.174,0.19,0.0976229688186,0.016,0.174,0.19,0.0976229688186,0.016,0.174,0.19,0.0976229688186
34840000,92.906534013,130.21536001,74.2521210145,0.6775,0.1745,0.5015,0.025,0.163,0.188,0.150253652597,0.025,0.163,0.188,0.150253652597,0.025,0.163,0.188,0.150253652597,0.025,0.163,0.188,0.150253652597,0.025,0.163,0.188,0.150253652597,0.025,0.163,0.188,0.150253652597
34840000,93.0007292113,131.496234736,73.752976449,0.683,0.1725,0.5135,0.016,0.1685,0.1845,0.0977799612668,0.016,0.1685,0.1845,0.0977799612668,0.016,0.1685,0.1845,0.0977799612668,0.016,0.1685,0.1845,0.0977799612668,0.016,0.1685,0.1845,0.0977799612668,0.016,0.1685,0.1845,0.0977799612668
34840000,93.0026852654,137.291913389,70.8580712035,0.6975,0.1755,0.522,0.019,0.1755,0.1945,0.10808982684,0.019,0.1755,0.1945,0.10808982684,0.019,0.1755,0.1945,0.10808982684,0.019,0.1755,0.1945,0.10808982684,0.019,0.1705,0.1895,0.111432072829,0.019,0.1705,0.1895,0.111432072829
34840000,93.2790387427,131.279038626,74.2790388013,0.683,0.3725,0.484,0.0255,0.3635,0.389,0.109236980125,0.0255,0.3635,0.389,0.109236980125,0.0235,0.3635,0.387,0.106632813458,0.021,0.3635,0.3845,0.0901854450374,0.021,0.3635,0.3845,0.0901854450374,0.021,0.3635,0.3845,0.0901854450374
34840000,93.4498035888,132.115842188,74.1167842893,0.6805,0.1705,0.5085,0.009,0.1665,0.1755,0.055129300524,0.009,0.1665,0.1755,0.055129300524,0.009,0.1665,0.1755,0.055129300524,0.009,0.1665,0.1755,0.055129300524,0.009,0.1665,0.1755,0.055129300524,0.009,0.1665,0.1755,0.055129300524
34840000,93.4618115658,133.32492405,73.5302553235,0.6885,0.172,0.5195,0.014,0.164,0.178,0.0870122750057,0.014,0.164,0.178,0.0870122750057,0.014,0.1635,0.1775,0.0871767486899,0.014,0.1625,0.1765,0.087460839599,0.014,0.1625,0.1765,0.087460839599,0.014,0.1625,0.1765,0.087460839599
34840000,94.0046243449,129.9938496,76.0100117172,0.659,0.187,0.4705,0.0275,0.187,0.2145,0.147496072768,0.027,0.187,0.214,0.144655163677,0.027,0.187,0.214,0.144655163677,0.027,0.187,0.214,0.144655163677,0.027,0.187,0.214,0.144655163677,0.027,0.187,0.214,0.144655163677
34840000,94.3820999075,133.079014973,75.0336423747,0.6865,0.1765,0.509,0.021,0.1695,0.1905,0.124323593074,0.021,0.1675,0.1885,0.12729978355,0.021,0.1675,0.1885,0.12729978355,0.021,0.1675,0.1885,0.12729978355,0.021,0.1675,0.1885,0.12729978355,0.021,0.1675,0.1885,0.12729978355
34840000,94.5623341025,132.858315534,75.4143433867,0.674,0.177,0.4935,0.0245,0.1555,0.18,0.158464342675,0.0245,0.1555,0.18,0.158464342675,0.0245,0.1555,0.18,0.158464342675,0.0245,0.1555,0.18,0.158464342675,0.0225,0.1555,0.178,0.145964342675,0.0225,0.1555,0.178,0.145964342675
34840000,95.3123471325,137.812265957,74.0623877202,0.691,0.224,0.522,0.013,0.223,0.236,0.0728673957621,0.013,0.2215,0.2345,0.0743554910002,0.013,0.2215,0.2345,0.0743554910002,0.013,0.2215,0.2345,0.0743554910002,0.013,0.2215,0.2345,0.0743554910002,0.013,0.2215,0.2345,0.0743554910002
34840000,95.4948105172,132.744994989,76.8697182815,0.636,0.171,0.462,0.013,0.162,0.175,0.080753968254,0.013,0.162,0.175,0.080753968254,0.013,0.162,0.175,0.080753968254,0.013,0.162,0.175,0.080753968254,0.013,0.162,0.175,0.080753968254,0.013,0.162,0.175,0.080753968254
34840000,95.5311811646,131.803822005,77.3948607443,0.641,0.249,0.466,0.0095,0.246,0.2555,0.0438920982399,0.0095,0.246,0.2555,0.0438920982399,0.0095,0.246,0.2555,0.0438920982399,0.0095,0.246,0.2555,0.0438920982399,0.0095,0.243,0.2525,0.045380193478,0.0095,0.243,0.2525,0.045380193478
34840000,95.7468740203,137.157068827,75.0417766167,0.6785,0.168,0.498,0.01,0.1645,0.1745,0.0606416609706,0.01,0.1645,0.1745,0.0606416609706,0.01,0.1645,0.1745,0.0606416609706,0.01,0.1645,0.1745,0.0606416609706,0.01,0.1635,0.1735,0.0609257518797,0.01,0.1635,0.1735,0.0609257518797
34840000,95.7989572873,137.777281895,74.8097949834,0.6705,0.1775,0.495,0.014,0.1775,0.1915,0.0791749011858,0.014,0.1775,0.1915,0.0791749011858,0.014,0.1775,0.1915,0.0791749011858,0.014,0.1775,0.1915,0.0791749011858,0.014,0.1775,0.1915,0.0791749011858,0.014,0.1775,0.1915,0.0791749011858
34840000,95.804495605,136.90367309,75.2549068622,0.674,0.175,0.5045,0.017,0.159,0.176,0.103994360902,0.017,0.159,0.176,0.103994360902,0.017,0.159,0.176,0.103994360902,0.013,0.159,0.172,0.0801848370927,0.013,0.159,0.172,0.0801848370927,0.013,0.159,0.172,0.0801848370927
34840000,96.0689189778,137.497304932,75.3547260005,0.6615,0.1685,0.4915,0.016,0.161,0.177,0.0998074229692,0.016,0.161,0.177,0.0998074229692,0.016,0.161,0.177,0.0998074229692,0.016,0.1605,0.1765,0.099956232493,0.016,0.1605,0.1765,0.099956232493,0.016,0.1605,0.1765,0.099956232493
34840000,96.84112487,134.762438346,77.8804681323,0.658,0.204,0.4125,0.0115,0.2015,0.213,0.056721513136,0.0115,0.2015,0.213,0.056721513136,0.0115,0.2015,0.213,0.056721513136,0.0115,0.1735,0.185,0.0638065333789,0.0115,0.1735,0.185,0.0638065333789,0.0115,0.1735,0.185,0.0638065333789
34840000,97.3297724154,139.938486297,76.0254154743,0.671,0.1715,0.5045,0.009,0.163,0.172,0.0554197994987,0.009,0.163,0.172,0.0554197994987,0.009,0.163,0.172,0.0554197994987,0.009,0.163,0.172,0.0554197994987,0.009,0.163,0.172,0.0554197994987,0.009,0.163,0.172,0.0554197994987
34840000,97.5663764676,140.670887122,76.0141211407,0.674,0.173,0.4955,0.0245,0.152,0.1765,0.158835382239,0.0245,0.152,0.1765,0.158835382239,0.0245,0.152,0.1765,0.158835382239,0.0245,0.151,0.1755,0.159403564057,0.0245,0.149,0.1735,0.160322681704,0.0245,0.149,0.1735,0.160322681704
34840000,97.6843294164,135.376886058,78.8380510954,0.6575,0.1935,0.412,0.024,0.1925,0.2165,0.121464963177,0.024,0.1925,0.2165,0.121464963177,0.024,0.1925,0.2165,0.121464963177,0.02,0.1925,0.2125,0.102234193946,0.02,0.1925,0.2125,0.102234193946,0.02,0.1925,0.2125,0.102234193946
34840000,98.1468995506,139.761422345,77.3396381536,0.6795,0.1885,0.5015,0.008,0.1875,0.1955,0.0432498509944,0.008,0.1795,0.1875,0.0453202443692,0.008,0.1795,0.1875,0.0453202443692,0.008,0.1795,0.1875,0.0453202443692,0.008,0.1795,0.1875,0.0453202443692,0.008,0.1795,0.1875,0.0453202443692
34840000,98.3320337314,142.693738925,76.1511811345,0.6725,0.1625,0.506,0.023,0.1545,0.1775,0.146619152047,0.023,0.1545,0.1775,0.146619152047,0.023,0.1545,0.1775,0.146619152047,0.023,0.1545,0.1775,0.146619152047,0.023,0.1545,0.1775,0.146619152047,0.023,0.1545,0.1775,0.146619152047
34840000,98.3342740402,140.54159338,77.2306143704,0.6715,0.171,0.5,0.0255,0.1695,0.195,0.15047562087,0.021,0.1695,0.1905,0.12382518797,0.021,0.1655,0.1865,0.127396616541,0.021,0.1645,0.1855,0.128248889269,0.021,0.1645,0.1855,0.128248889269,0.021,0.1645,0.1855,0.128248889269
34840000,98.4265095536,140.624290403,77.3276191287,0.6655,0.172,0.4915,0.009,0.169,0.178,0.0533279220779,0.009,0.169,0.178,0.0533279220779,0.009,0.169,0.178,0.0533279220779,0.009,0.169,0.178,0.0533279220779,0.0085,0.169,0.1775,0.0503517316017,0.0085,0.169,0.1775,0.0503517316017
34840000,99.4274310361,143.169109924,77.556591592,0.6885,0.1825,0.5055,0.0465,0.1605,0.207,0.290678619626,0.0465,0.1605,0.207,0.290678619626,0.0465,0.1605,0.207,0.290678619626,0.0465,0.1605,0.207,0.290678619626,0.0465,0.1605,0.207,0.290678619626,0.0465,0.1605,0.207,0.290678619626
34840000,100.55040171,146.254170219,77.6985174555,0.6775,0.166,0.5105,0.013,0.165,0.178,0.0794642857143,0.013,0.165,0.178,0.0794642857143,0.013,0.165,0.178,0.0794642857143,0.013,0.165,0.178,0.0794642857143,0.013,0.165,0.178,0.0794642857143,0.013,0.165,0.178,0.0794642857143
34840000,100.596885163,144.012899675,78.8888779063,0.671,0.184,0.493,0.009,0.167,0.176,0.053748501689,0.009,0.167,0.176,0.053748501689,0.009,0.167,0.176,0.053748501689,0.008,0.167,0.175,0.0483137190803,0.008,0.167,0.175,0.0483137190803,0.008,0.167,0.175,0.0483137190803
34840000,100.764623208,146.498959006,77.8974553084,0.6855,0.167,0.4345,0.015,0.1465,0.1615,0.101020781119,0.015,0.1465,0.1615,0.101020781119,0.015,0.1465,0.1615,0.101020781119,0.015,0.1465,0.1615,0.101020781119,0.008,0.1465,0.1545,0.0549681495405,0.008,0.1465,0.1545,0.0549681495405
34840000,100.85417046,145.635876193,78.4633175933,0.665,0.168,0.497,0.017,0.157,0.174,0.110197368421,0.017,0.157,0.174,0.110197368421,0.017,0.157,0.174,0.110197368421,0.017,0.157,0.174,0.110197368421,0.015,0.157,0.172,0.0970394736842,0.015,0.157,0.172,0.0970394736842
34840000,100.999843755,146.045994978,78.476768143,0.665,0.166,0.4955,0.0165,0.1555,0.172,0.11755952381,0.0155,0.1555,0.171,0.111607142857,0.0155,0.1555,0.171,0.111607142857,0.0155,0.1555,0.171,0.111607142857,0.0145,0.155,0.1695,0.105983709273,0.0145,0.155,0.1695,0.105983709273
34840000,101.518367428,147.830644098,78.3622290923,0.6695,0.169,0.5015,0.0095,0.156,0.1655,0.0607142857143,0.0095,0.156,0.1655,0.0607142857143,0.0095,0.156,0.1655,0.0607142857143,0.0095,0.156,0.1655,0.0607142857143,0.0095,0.156,0.1655,0.0607142857143,0.0095,0.156,0.1655,0.0607142857143
34840000,101.570796356,145.937624282,79.3873823932,0.6625,0.1725,0.492,0.016,0.1665,0.1825,0.0952780914737,0.016,0.1665,0.1825,0.0952780914737,0.016,0.1665,0.1825,0.0952780914737,0.016,0.1665,0.1825,0.0952780914737,0.016,0.1665,0.1825,0.0952780914737,0.016,0.1665,0.1825,0.0952780914737
34840000,101.718376183,145.481546385,79.8367910822,0.648,0.1775,0.3835,0.008,0.1665,0.1745,0.0511689379699,0.008,0.1665,0.1745,0.0511689379699,0.008,0.1665,0.1745,0.0511689379699,0.008,0.1665,0.1745,0.0511689379699,0.008,0.1665,0.1745,0.0511689379699,0.008,0.1665,0.1745,0.0511689379699
34840000,101.986301198,147.46864578,79.2451289065,0.6585,0.1655,0.4945,0.014,0.16,0.174,0.0869543650794,0.014,0.16,0.174,0.0869543650794,0.014,0.16,0.174,0.0869543650794,0.014,0.16,0.174,0.0869543650794,0.014,0.16,0.174,0.0869543650794,0.014,0.16,0.174,0.0869543650794
34840000,102.172334927,147.139320631,79.6888420743,0.645,0.163,0.487,0.0185,0.16,0.1785,0.115625,0.0185,0.16,0.1785,0.115625,0.0185,0.16,0.1785,0.115625,0.0185,0.16,0.1785,0.115625,0.0185,0.16,0.1785,0.115625,0.0185,0.16,0.1785,0.115625
34840000,102.728490172,148.40626477,79.8896028732,0.576,0.167,0.4325,0.0125,0.152,0.1645,0.0807190100921,0.0125,0.152,0.1645,0.0807190100921,0.0125,0.152,0.1645,0.0807190100921,0.0125,0.152,0.1645,0.0807190100921,0.0125,0.152,0.1645,0.0807190100921,0.0125,0.152,0.1645,0.0807190100921
34840000,102.748579583,147.69510003,80.2753193598,0.6455,0.168,0.478,0.016,0.1585,0.1745,0.100632440476,0.016,0.1585,0.1745,0.100632440476,0.016,0.1585,0.1745,0.100632440476,0.016,0.1585,0.1745,0.100632440476,0.016,0.1585,0.1745,0.100632440476,0.016,0.1585,0.1745,0.100632440476
34840000,103.044645336,148.020159071,80.5568884677,0.6495,0.1535,0.4855,0.016,0.152,0.168,0.103138053467,0.016,0.152,0.168,0.103138053467,0.016,0.152,0.168,0.103138053467,0.016,0.152,0.168,0.103138053467,0.016,0.152,0.168,0.103138053467,0.016,0.152,0.168,0.103138053467
34840000,103.375812905,147.865828532,81.130805092,0.6385,0.2835,0.47,0.0125,0.262,0.2745,0.0499650523088,0.0125,0.262,0.2745,0.0499650523088,0.0125,0.262,0.2745,0.0499650523088,0.0125,0.246,0.2585,0.0528054867282,0.012,0.246,0.258,0.0496804867282,0.012,0.246,0.258,0.0496804867282
34840000,105.334574197,150.402237721,82.8007424357,0.645,0.181,0.4795,0.014,0.1775,0.1915,0.0811348921546,0.014,0.1775,0.1915,0.0811348921546,0.014,0.1775,0.1915,0.0811348921546,0.014,0.1775,0.1915,0.0811348921546,0.014,0.1775,0.1915,0.0811348921546,0.014,0.1775,0.1915,0.0811348921546
34920000,85.4699287957,97.3396808523,79.5350527674,0.7625,0.1635,0.6005,0.0155,0.1535,0.169,0.101315789474,0.0155,0.1535,0.169,0.101315789474,0.0155,0.1535,0.169,0.101315789474,0.0155,0.1535,0.169,0.101315789474,0.0155,0.153,0.1685,0.101644736842,0.0155,0.153,0.1685,0.101644736842
34920000,86.1805285693,98.354467554,80.0935590769,0.7775,0.172,0.6025,0.02,0.17,0.19,0.119906299841,0.013,0.17,0.183,0.0784290271132,0.013,0.17,0.183,0.0784290271132,0.013,0.17,0.183,0.0784290271132,0.013,0.17,0.183,0.0784290271132,0.013,0.17,0.183,0.0784290271132
34920000,88.4623405948,99.1452690295,83.1208763774,0.7385,0.169,0.5665,0.0265,0.168,0.1945,0.159486166008,0.0265,0.1665,0.193,0.160589107184,0.0265,0.1665,0.193,0.160589107184,0.0265,0.1665,0.193,0.160589107184,0.0265,0.1665,0.193,0.160589107184,0.0265,0.1665,0.193,0.160589107184
34920000,88.4981051265,100.567680423,82.4633174785,0.748,0.164,0.583,0.0335,0.15,0.1835,0.229166666667,0.0335,0.15,0.1835,0.229166666667,0.0335,0.15,0.1835,0.229166666667,0.0335,0.15,0.1835,0.229166666667,0.0335,0.15,0.1835,0.229166666667,0.0335,0.15,0.1835,0.229166666667
34920000,88.536678889,100.211376374,82.6993301465,0.752,0.166,0.588,0.033,0.148,0.181,0.221488156666,0.033,0.148,0.181,0.221488156666,0.033,0.148,0.181,0.221488156666,0.033,0.148,0.181,0.221488156666,0.033,0.148,0.181,0.221488156666,0.033,0.148,0.181,0.221488156666
34920000,89.2400711516,100.246721466,83.7367459945,0.748,0.173,0.582,0.009,0.157,0.166,0.0569705513784,0.009,0.157,0.166,0.0569705513784,0.009,0.157,0.166,0.0569705513784,0.009,0.157,0.166,0.0569705513784,0.009,0.157,0.166,0.0569705513784,0.009,0.157,0.166,0.0569705513784
34920000,89.4797598425,101.891976962,83.2736512825,0.7465,0.1625,0.584,0.016,0.1605,0.1765,0.0998981829574,0.016,0.1605,0.1765,0.0998981829574,0.016,0.1605,0.1765,0.0998981829574,0.016,0.1605,0.1765,0.0998981829574,0.016,0.16,0.176,0.100080931495,0.016,0.16,0.176,0.100080931495
34920000,91.5897981159,103.331964888,85.7187147298,0.7655,0.19,0.5855,0.0095,0.1785,0.188,0.0590092097445,0.0095,0.1785,0.188,0.0590092097445,0.0095,0.1785,0.188,0.0590092097445,0.0095,0.1785,0.188,0.0590092097445,0.0095,0.1775,0.187,0.0597036541889,0.0095,0.1775,0.187,0.0597036541889
34920000,92.3156536976,104.764370464,86.0912953146,0.7485,0.1675,0.5845,0.0085,0.159,0.1675,0.0542775443511,0.0085,0.159,0.1675,0.0542775443511,0.0085,0.159,0.1675,0.0542775443511,0.0085,0.159,0.1675,0.0542775443511,0.0085,0.159,0.1675,0.0542775443511,0.0085,0.159,0.1675,0.0542775443511
34920000,93.7283636217,106.284292705,87.4503990799,0.759,0.161,0.5895,0.024,0.1555,0.1795,0.154411303995,0.02,0.1555,0.1755,0.128095514522,0.02,0.1555,0.1755,0.128095514522,0.017,0.1555,0.1725,0.110238371664,0.017,0.1555,0.1725,0.110238371664,0.017,0.1555,0.1725,0.110238371664
34960000,88.7237129867,105.048864093,80.5611374336,0.7355,0.183,0.5565,0.016,0.1805,0.1965,0.0878211462451,0.016,0.1805,0.1965,0.0878211462451,0.016,0.1805,0.1965,0.0878211462451,0.016,0.1805,0.1965,0.0878211462451,0.016,0.1805,0.1965,0.0878211462451,0.016,0.1725,0.1885,0.0940323263693
34960000,89.7970340084,107.531561717,80.9297701542,0.7395,0.1805,0.5685,0.02,0.1475,0.1675,0.162826470821,0.02,0.147,0.167,0.162961752207,0.02,0.147,0.167,0.162961752207,0.02,0.147,0.167,0.162961752207,0.02,0.147,0.167,0.162961752207,0.02,0.147,0.167,0.162961752207
34960000,89.8135815232,106.383109379,81.5288175953,0.7475,0.184,0.564,0.0125,0.181,0.1935,0.0704951298701,0.0125,0.181,0.1935,0.0704951298701,0.0125,0.181,0.1935,0.0704951298701,0.011,0.181,0.192,0.0619724025974,0.011,0.181,0.192,0.0619724025974,0.011,0.181,0.192,0.0619724025974
34960000,90.3490631381,107.926320736,81.560434339,0.672,0.151,0.5125,0.0225,0.1505,0.173,0.153760822511,0.0225,0.1505,0.173,0.153760822511,0.0225,0.1505,0.173,0.153760822511,0.0225,0.1505,0.173,0.153760822511,0.0225,0.1505,0.173,0.153760822511,0.0225,0.1505,0.173,0.153760822511
34960000,91.4075354215,107.857303372,83.1826514464,0.7355,0.1705,0.562,0.018,0.1455,0.1635,0.122591550207,0.018,0.144,0.162,0.125071708937,0.018,0.144,0.162,0.125071708937,0.018,0.144,0.162,0.125071708937,0.018,0.144,0.162,0.125071708937,0.018,0.144,0.162,0.125071708937
34960000,91.4096494675,107.184039621,83.5224543907,0.724,0.168,0.549,0.032,0.167,0.199,0.191071428571,0.032,0.167,0.199,0.191071428571,0.032,0.167,0.199,0.191071428571,0.032,0.167,0.199,0.191071428571,0.032,0.167,0.199,0.191071428571,0.032,0.167,0.199,0.191071428571
34960000,91.4181828235,111.639759839,81.3073943156,0.7735,0.224,0.5655,0.0285,0.205,0.2335,0.14323950714,0.0285,0.205,0.2335,0.14323950714,0.0285,0.205,0.2335,0.14323950714,0.0245,0.205,0.2295,0.12599812783,0.0245,0.205,0.2295,0.12599812783,0.0245,0.205,0.2295,0.12599812783
34960000,92.7183268912,110.637094046,83.7589433138,0.769,0.18,0.59,0.0125,0.1705,0.183,0.0739989177489,0.0125,0.166,0.1785,0.0762310606061,0.0125,0.166,0.1785,0.0762310606061,0.0125,0.166,0.1785,0.0762310606061,0.0125,0.166,0.1785,0.0762310606061,0.0125,0.166,0.1785,0.0762310606061
34960000,93.2036463297,109.081816091,85.2645614489,0.755,0.191,0.572,0.0155,0.1665,0.182,0.0925589356296,0.0155,0.1665,0.182,0.0925589356296,0.0155,0.1665,0.182,0.0925589356296,0.0155,0.1665,0.182,0.0925589356296,0.0135,0.1665,0.18,0.0816893704122,0.0135,0.166,0.1795,0.0817485560183
34960000,93.2245599052,114.188245817,82.7427169495,0.7435,0.183,0.558,0.029,0.1805,0.2095,0.159226190476,0.029,0.1805,0.2095,0.159226190476,0.029,0.1805,0.2095,0.159226190476,0.029,0.1805,0.2095,0.159226190476,0.029,0.1805,0.2095,0.159226190476,0.029,0.1805,0.2095,0.159226190476
34960000,93.6681018523,109.782558467,85.610873545,0.7515,0.174,0.5765,0.02,0.1655,0.1855,0.119353782183,0.019,0.1655,0.1845,0.11340140123,0.019,0.1655,0.1845,0.11340140123,0.019,0.1655,0.1845,0.11340140123,0.019,0.1655,0.1845,0.11340140123,0.019,0.1655,0.1845,0.11340140123
34960000,93.8161506756,112.181488259,84.6334818836,0.7495,0.1835,0.5695,0.014,0.1795,0.1935,0.0800075472773,0.014,0.1795,0.1935,0.0800075472773,0.014,0.1795,0.1935,0.0800075472773,0.014,0.1795,0.1935,0.0800075472773,0.014,0.1795,0.1935,0.0800075472773,0.014,0.1795,0.1935,0.0800075472773
34960000,93.9270987592,113.102678366,84.3393089559,0.733,0.1805,0.5415,0.045,0.172,0.217,0.251729868149,0.043,0.172,0.215,0.238571973412,0.043,0.172,0.215,0.238571973412,0.043,0.172,0.215,0.238571973412,0.035,0.172,0.207,0.195093712542,0.035,0.168,0.203,0.20201070859
34960000,94.5830635796,109.234037992,87.2575763735,0.7505,0.1895,0.5735,0.0155,0.1615,0.177,0.0906832634774,0.0155,0.1495,0.165,0.0969857844858,0.0155,0.1495,0.165,0.0969857844858,0.0155,0.1495,0.165,0.0969857844858,0.0155,0.1495,0.165,0.0969857844858,0.0155,0.1495,0.165,0.0969857844858
34960000,95.0618941882,115.04990012,85.0678912221,0.7345,0.23,0.5375,0.036,0.215,0.251,0.157196969697,0.035,0.209,0.244,0.154986273889,0.033,0.209,0.242,0.143081511984,0.031,0.209,0.24,0.136983951008,0.031,0.209,0.24,0.136983951008,0.03,0.209,0.239,0.131031570056
34960000,96.7507081774,116.038617556,87.1067534882,0.7285,0.1755,0.553,0.015,0.1635,0.1785,0.08768390426,0.015,0.1635,0.1785,0.08768390426,0.015,0.1635,0.1785,0.08768390426,0.015,0.1635,0.1785,0.08768390426,0.015,0.1635,0.1785,0.08768390426,0.015,0.1635,0.1785,0.08768390426
34960000,96.7896899933,115.441017975,87.4640260023,0.7345,0.1845,0.5575,0.0095,0.1735,0.183,0.0557065217391,0.0095,0.1715,0.181,0.057095410628,0.0095,0.1715,0.181,0.057095410628,0.0095,0.1715,0.181,0.057095410628,0.0095,0.1715,0.181,0.057095410628,0.0095,0.1715,0.181,0.057095410628
34960000,100.742116119,120.302620774,90.9618637918,0.7165,0.172,0.5385,0.028,0.168,0.196,0.170346320346,0.024,0.168,0.192,0.146536796537,0.024,0.164,0.188,0.157647907648,0.024,0.164,0.188,0.157647907648,0.024,0.164,0.188,0.157647907648,0.024,0.164,0.188,0.157647907648
35000000,101.559800307,126.270859137,89.2042708922,0.676,0.1705,0.502,0.021,0.164,0.185,0.128676470588,0.015,0.164,0.179,0.0911764705882,0.015,0.164,0.179,0.0911764705882,0.015,0.164,0.179,0.0911764705882,0.015,0.164,0.179,0.0911764705882,0.015,0.164,0.179,0.0911764705882
35000000,101.94715592,128.663164192,88.5891517837,0.6785,0.164,0.5125,0.033,0.154,0.187,0.22044695071,0.033,0.154,0.187,0.22044695071,0.033,0.154,0.187,0.22044695071,0.033,0.154,0.187,0.22044695071,0.033,0.154,0.187,0.22044695071,0.033,0.154,0.187,0.22044695071
35000000,104.594610631,125.908092449,93.9378697224,0.673,0.1735,0.5015,0.03,0.173,0.203,0.172362012987,0.03,0.173,0.203,0.172362012987,0.03,0.173,0.203,0.172362012987,0.03,0.173,0.203,0.172362012987,0.0295,0.173,0.2025,0.169521103896,0.029,0.173,0.202,0.166680194805
35000000,105.542633438,125.886443106,95.3707286034,0.6795,0.1815,0.502,0.013,0.175,0.188,0.0719466195569,0.013,0.175,0.188,0.0719466195569,0.013,0.175,0.188,0.0719466195569,0.013,0.175,0.188,0.0719466195569,0.013,0.175,0.188,0.0719466195569,0.013,0.175,0.188,0.0719466195569
35000000,105.829736928,128.658136629,94.415537077,0.676,0.172,0.476,0.012,0.164,0.176,0.072619047619,0.012,0.164,0.176,0.072619047619,0.012,0.164,0.176,0.072619047619,0.012,0.164,0.176,0.072619047619,0.012,0.164,0.176,0.072619047619,0.012,0.164,0.176,0.072619047619
35040000,87.9841658339,131.020833611,66.4658319456,0.7145,0.3735,0.5215,0.0135,0.3645,0.378,0.0554734167434,0.0135,0.3645,0.378,0.0554734167434,0.0135,0.3645,0.378,0.0554734167434,0.0135,0.3645,0.378,0.0554734167434,0.0135,0.3645,0.378,0.0554734167434,0.0135,0.3645,0.378,0.0554734167434
35080000,87.4769602711,132.827401364,64.8017397246,0.729,0.186,0.5355,0.013,0.181,0.194,0.071821633982,0.013,0.181,0.194,0.071821633982,0.013,0.181,0.194,0.071821633982,0.0125,0.181,0.1935,0.0694177878281,0.0125,0.179,0.1915,0.0699118589744,0.0125,0.179,0.1915,0.0699118589744
35080000,87.9441114526,136.163466778,63.8344337898,0.7775,0.25,0.5855,0.012,0.2425,0.2545,0.0487859061229,0.012,0.2425,0.2545,0.0487859061229,0.012,0.2415,0.2535,0.049069997032,0.012,0.2355,0.2475,0.0510541240161,0.012,0.2355,0.2475,0.0510541240161,0.012,0.2355,0.2475,0.0510541240161
35080000,88.215249421,137.251134976,63.6973066437,0.788,0.3,0.48,0.012,0.292,0.304,0.0417391304348,0.012,0.292,0.304,0.0417391304348,0.012,0.292,0.304,0.0417391304348,0.012,0.292,0.304,0.0417391304348,0.012,0.292,0.304,0.0417391304348,0.012,0.292,0.304,0.0417391304348
35080000,91.0805858126,139.73971932,66.751019059,0.7645,0.185,0.5535,0.02,0.1745,0.1945,0.113189346885,0.0165,0.1745,0.191,0.0941676077546,0.0165,0.1745,0.191,0.0941676077546,0.0165,0.1745,0.191,0.0941676077546,0.0165,0.1705,0.187,0.0954207405866,0.0165,0.1705,0.187,0.0954207405866
35120000,85.166667908,132.715356167,61.3923237784,0.793,0.1975,0.6,0.014,0.1775,0.1915,0.0760416666667,0.014,0.1655,0.1795,0.0804534313725,0.014,0.1655,0.1795,0.0804534313725,0.014,0.1645,0.1785,0.0808882139812,0.014,0.1645,0.1785,0.0808882139812,0.014,0.1645,0.1785,0.0808882139812
35120000,86.3961138486,135.04409068,62.0721254331,0.7835,0.1995,0.5895,0.0345,0.1935,0.228,0.176725543478,0.0345,0.1935,0.228,0.176725543478,0.0345,0.1935,0.228,0.176725543478,0.0345,0.1935,0.228,0.176725543478,0.0345,0.1895,0.224,0.177767210145,0.0345,0.1895,0.224,0.177767210145
35120000,86.5678291111,131.130846753,64.2863202901,0.744,0.182,0.5545,0.013,0.1645,0.1775,0.0798476319876,0.013,0.1645,0.1775,0.0798476319876,0.013,0.1635,0.1765,0.0807404891304,0.013,0.1635,0.1765,0.0807404891304,0.013,0.1635,0.1765,0.0807404891304,0.013,0.1635,0.1765,0.0807404891304
35120000,87.0111570099,135.142241654,62.9456146877,0.7905,0.2025,0.591,0.0175,0.1945,0.212,0.090391076315,0.0175,0.194,0.2115,0.0906381118881,0.0175,0.194,0.2115,0.0906381118881,0.0175,0.1935,0.211,0.0907733932734,0.0175,0.1915,0.209,0.0911900599401,0.0175,0.1915,0.209,0.0911900599401
35120000,87.2532630691,135.896116323,62.931836442,0.806,0.1965,0.608,0.019,0.184,0.203,0.107488694562,0.019,0.184,0.203,0.107488694562,0.019,0.184,0.203,0.107488694562,0.019,0.178,0.197,0.114890010352,0.019,0.178,0.197,0.114890010352,0.019,0.178,0.197,0.114890010352
35120000,88.2250187935,136.766573016,63.9542416824,0.7675,0.183,0.57,0.015,0.1725,0.1875,0.0881658196876,0.015,0.1725,0.1875,0.0881658196876,0.015,0.1725,0.1875,0.0881658196876,0.0145,0.172,0.1865,0.0856225296443,0.0145,0.172,0.1865,0.0856225296443,0.0145,0.172,0.1865,0.0856225296443
35120000,88.2584212044,137.1504456,63.8124090066,0.7705,0.193,0.58,0.0115,0.1795,0.191,0.0642530857777,0.0105,0.1795,0.19,0.0585712675959,0.01,0.1795,0.1895,0.0558538762915,0.01,0.1395,0.1495,0.0707348286725,0.01,0.1395,0.1495,0.0707348286725,0.01,0.1395,0.1495,0.0707348286725
35120000,88.7981967965,138.45739847,63.9685959597,0.789,0.193,0.5925,0.02,0.183,0.203,0.110248447205,0.02,0.183,0.203,0.110248447205,0.02,0.183,0.203,0.110248447205,0.02,0.183,0.203,0.110248447205,0.02,0.183,0.203,0.110248447205,0.02,0.183,0.203,0.110248447205
35120000,88.9020977495,136.82697175,64.9396607492,0.7825,0.1875,0.5915,0.0165,0.171,0.1875,0.0980395962733,0.0145,0.171,0.1855,0.0855395962733,0.0105,0.171,0.1815,0.0605395962733,0.0105,0.165,0.1755,0.0627454786262,0.0105,0.161,0.1715,0.0639359548167,0.0105,0.161,0.1715,0.0639359548167
35120000,88.9377663065,137.340641937,64.7363284913,0.779,0.193,0.5885,0.0095,0.184,0.1935,0.051277997365,0.009,0.184,0.193,0.048777997365,0.009,0.184,0.193,0.048777997365,0.009,0.184,0.193,0.048777997365,0.009,0.184,0.193,0.048777997365,0.009,0.184,0.193,0.048777997365
35120000,89.0928796924,136.803723985,65.2374575459,0.776,0.1985,0.5785,0.008,0.1775,0.1855,0.0455298913043,0.008,0.1775,0.1855,0.0455298913043,0.008,0.1775,0.1855,0.0455298913043,0.008,0.176,0.184,0.0458798583663,0.008,0.176,0.184,0.0458798583663,0.008,0.176,0.184,0.0458798583663
35120000,89.2398337442,138.173354499,64.7730733669,0.764,0.208,0.554,0.023,0.1995,0.2225,0.121058057281,0.023,0.1995,0.2225,0.121058057281,0.023,0.1995,0.2225,0.121058057281,0.023,0.1995,0.2225,0.121058057281,0.023,0.1995,0.2225,0.121058057281,0.023,0.1995,0.2225,0.121058057281
35120000,89.881414132,139.88019375,64.882024323,0.7815,0.1985,0.5855,0.0105,0.19,0.2005,0.0562648221344,0.0105,0.19,0.2005,0.0562648221344,0.0105,0.19,0.2005,0.0562648221344,0.0105,0.19,0.2005,0.0562648221344,0.0105,0.19,0.2005,0.0562648221344,0.0105,0.19,0.2005,0.0562648221344
35120000,89.9203244849,138.238711919,65.7611307678,0.741,0.1925,0.552,0.017,0.184,0.201,0.093410326087,0.0165,0.184,0.2005,0.090285326087,0.0165,0.184,0.2005,0.090285326087,0.0085,0.184,0.1925,0.0468070652174,0.0085,0.184,0.1925,0.0468070652174,0.0085,0.1775,0.186,0.0499255952381
35120000,90.4151386073,140.30570625,65.4698547859,0.79,0.196,0.594,0.0125,0.192,0.2045,0.0646006258235,0.0125,0.192,0.2045,0.0646006258235,0.0125,0.192,0.2045,0.0646006258235,0.0125,0.192,0.2045,0.0646006258235,0.0125,0.192,0.2045,0.0646006258235,0.0125,0.192,0.2045,0.0646006258235
35120000,90.4380123445,141.205338023,65.0543495054,0.789,0.1895,0.6025,0.0135,0.187,0.2005,0.0726449275362,0.0135,0.187,0.2005,0.0726449275362,0.0135,0.187,0.2005,0.0726449275362,0.0115,0.187,0.1985,0.0617753623188,0.0115,0.187,0.1985,0.0617753623188,0.0115,0.187,0.1985,0.0617753623188
35120000,90.7565050954,140.932515462,65.6684999119,0.7735,0.1935,0.581,0.01,0.191,0.201,0.0527935606061,0.01,0.191,0.201,0.0527935606061,0.01,0.191,0.201,0.0527935606061,0.01,0.191,0.201,0.0527935606061,0.01,0.191,0.201,0.0527935606061,0.01,0.191,0.201,0.0527935606061
35120000,91.090368245,139.310419277,66.9803427292,0.773,0.187,0.582,0.029,0.179,0.208,0.159544513458,0.029,0.179,0.208,0.159544513458,0.029,0.179,0.208,0.159544513458,0.029,0.179,0.208,0.159544513458,0.021,0.179,0.2,0.116066252588,0.021,0.179,0.2,0.116066252588
35120000,91.4721912148,141.253257245,66.5816581999,0.7785,0.191,0.5875,0.022,0.187,0.209,0.116236413043,0.022,0.187,0.209,0.116236413043,0.022,0.187,0.209,0.116236413043,0.022,0.185,0.207,0.117224555336,0.022,0.185,0.207,0.117224555336,0.022,0.185,0.207,0.117224555336
35120000,91.5919749819,141.492281638,66.6418216539,0.765,0.1915,0.57,0.014,0.1855,0.1995,0.0771103896104,0.014,0.18,0.194,0.0784647513051,0.014,0.18,0.194,0.0784647513051,0.014,0.18,0.194,0.0784647513051,0.014,0.1795,0.1935,0.0786474998432,0.014,0.1795,0.1935,0.0786474998432
35120000,91.6460788282,141.153895089,66.8921706977,0.765,0.2265,0.556,0.016,0.218,0.234,0.0686894863267,0.016,0.218,0.234,0.0686894863267,0.016,0.218,0.234,0.0686894863267,0.016,0.218,0.234,0.0686894863267,0.016,0.218,0.234,0.0686894863267,0.016,0.218,0.234,0.0686894863267
35120000,91.704054883,141.207508237,66.9523282061,0.7615,0.1875,0.5775,0.0155,0.1835,0.199,0.0842714803313,0.0155,0.1835,0.199,0.0842714803313,0.0155,0.1835,0.199,0.0842714803313,0.0155,0.1835,0.199,0.0842714803313,0.0155,0.1835,0.199,0.0842714803313,0.0105,0.1835,0.194,0.0570975672878
35120000,91.7610926808,142.630746978,66.3262655323,0.7615,0.1885,0.575,0.015,0.169,0.184,0.0885093167702,0.015,0.169,0.184,0.0885093167702,0.015,0.1685,0.1835,0.0888798701299,0.015,0.1685,0.1835,0.0888798701299,0.015,0.1685,0.1835,0.0888798701299,0.015,0.1675,0.1825,0.0891774891775
35120000,91.9118682002,143.054869681,66.3403674597,0.778,0.1845,0.5895,0.01,0.1835,0.1935,0.0539929183136,0.01,0.1835,0.1935,0.0539929183136,0.01,0.1835,0.1935,0.0539929183136,0.01,0.1835,0.1935,0.0539929183136,0.01,0.1835,0.1935,0.0539929183136,0.01,0.1835,0.1935,0.0539929183136
35120000,92.3109098466,143.44321373,66.7447579048,0.77,0.1825,0.576,0.0225,0.1695,0.192,0.134288537549,0.0225,0.1685,0.191,0.134547336721,0.0225,0.1685,0.191,0.134547336721,0.0145,0.1685,0.183,0.0845473367212,0.0145,0.1685,0.183,0.0845473367212,0.0145,0.1685,0.183,0.0845473367212
35120000,92.4541565667,143.477631466,66.9424191168,0.78,0.1865,0.5815,0.018,0.1775,0.1955,0.103448498965,0.018,0.1695,0.1875,0.10551889234,0.018,0.1695,0.1875,0.10551889234,0.018,0.1695,0.1875,0.10551889234,0.018,0.1695,0.1875,0.10551889234,0.014,0.1695,0.1835,0.08170936853
35120000,92.7254650329,143.771583657,67.2024057208,0.7605,0.18,0.5725,0.0195,0.1735,0.193,0.112690864389,0.0195,0.1735,0.193,0.112690864389,0.0195,0.1735,0.193,0.112690864389,0.0195,0.1735,0.193,0.112690864389,0.0195,0.1735,0.193,0.112690864389,0.0195,0.1735,0.193,0.112690864389
35120000,92.7457967809,143.071967677,67.5827113329,0.736,0.191,0.548,0.0205,0.1785,0.199,0.113294414396,0.0085,0.1785,0.187,0.0480770230913,0.0085,0.1785,0.187,0.0480770230913,0.0085,0.1785,0.187,0.0480770230913,0.0085,0.1785,0.187,0.0480770230913,0.0085,0.1785,0.187,0.0480770230913
35120000,92.8452222687,143.844260124,67.3457033408,0.768,0.2035,0.5685,0.017,0.1965,0.2135,0.086897426955,0.017,0.1965,0.2135,0.086897426955,0.017,0.1965,0.2135,0.086897426955,0.017,0.1965,0.2135,0.086897426955,0.017,0.1965,0.2135,0.086897426955,0.017,0.1945,0.2115,0.0898736174312
35120000,92.9301472107,142.521606676,68.1344174779,0.765,0.194,0.57,0.014,0.1885,0.2025,0.0741621376812,0.014,0.1885,0.2025,0.0741621376812,0.014,0.1885,0.2025,0.0741621376812,0.014,0.1845,0.1985,0.0759737318841,0.014,0.1845,0.1985,0.0759737318841,0.014,0.1845,0.1985,0.0759737318841
35120000,92.9748673766,144.588146876,67.1682276269,0.787,0.1905,0.4995,0.0315,0.188,0.2195,0.172145562771,0.0315,0.188,0.2195,0.172145562771,0.0315,0.188,0.2195,0.172145562771,0.025,0.188,0.213,0.138291396104,0.019,0.188,0.207,0.10257711039,0.019,0.188,0.207,0.10257711039
35120000,93.2597716709,144.94685888,67.4162280666,0.775,0.291,0.534,0.017,0.2885,0.3055,0.0676028138528,0.017,0.2885,0.3055,0.0676028138528,0.017,0.2885,0.3055,0.0676028138528,0.017,0.2725,0.2895,0.0817204609116,0.017,0.2725,0.2895,0.0817204609116,0.017,0.2725,0.2895,0.0817204609116
35120000,93.3266826541,144.214761371,67.8826432956,0.743,0.1795,0.5655,0.008,0.1685,0.1765,0.0478562801932,0.008,0.1685,0.1765,0.0478562801932,0.008,0.1605,0.1685,0.050129007466,0.008,0.1605,0.1685,0.050129007466,0.008,0.1605,0.1685,0.050129007466,0.008,0.1605,0.1685,0.050129007466
35120000,93.4417458008,145.269753001,67.5277422006,0.789,0.1795,0.6105,0.0145,0.1635,0.178,0.086176409403,0.0145,0.1635,0.178,0.086176409403,0.0145,0.1635,0.178,0.086176409403,0.0145,0.1635,0.178,0.086176409403,0.0145,0.1635,0.178,0.086176409403,0.0145,0.1635,0.178,0.086176409403
35120000,93.8009761134,145.558316808,67.9223057663,0.7445,0.18,0.5595,0.0155,0.1765,0.192,0.0880187747036,0.0155,0.1665,0.182,0.0947032666822,0.0155,0.1665,0.182,0.0947032666822,0.0155,0.165,0.1805,0.0959260927691,0.0155,0.165,0.1805,0.0959260927691,0.0155,0.165,0.1805,0.0959260927691
35120000,93.8182512901,146.643098491,67.4058276895,0.8035,0.18,0.617,0.0145,0.1785,0.193,0.0831924797171,0.0145,0.1785,0.193,0.0831924797171,0.0145,0.1785,0.193,0.0831924797171,0.0145,0.1785,0.193,0.0831924797171,0.0105,0.1775,0.188,0.0613174797171,0.0105,0.1775,0.188,0.0613174797171
35120000,93.9894244575,145.009854062,68.4792096554,0.7635,0.1895,0.5785,0.04,0.1885,0.2285,0.20919060559,0.04,0.1825,0.2225,0.210678700828,0.04,0.1825,0.2225,0.210678700828,0.028,0.1825,0.2105,0.148178700828,0.028,0.1825,0.2105,0.148178700828,0.028,0.1825,0.2105,0.148178700828
35120000,94.1450321968,145.810937706,68.3120794422,0.7605,0.187,0.5705,0.0125,0.187,0.1995,0.0684185606061,0.0115,0.187,0.1985,0.0627367424242,0.0115,0.187,0.1985,0.0627367424242,0.0105,0.187,0.1975,0.0570549242424,0.009,0.187,0.196,0.0485321969697,0.009,0.187,0.196,0.0485321969697
35120000,94.2708161285,145.407917664,68.7022653609,0.747,0.193,0.557,0.0205,0.1885,0.209,0.110442546584,0.0145,0.1885,0.203,0.0778338509317,0.0145,0.1885,0.203,0.0778338509317,0.014,0.1885,0.2025,0.075229684265,0.0135,0.1885,0.202,0.0722534937888,0.0135,0.1885,0.202,0.0722534937888
35120000,94.3689216267,145.854800846,68.6259820172,0.759,0.18,0.553,0.0155,0.1675,0.183,0.092877140975,0.0145,0.1675,0.182,0.0874423583663,0.0145,0.166,0.1805,0.0882575757576,0.0145,0.166,0.1805,0.0882575757576,0.0145,0.166,0.1805,0.0882575757576,0.0145,0.166,0.1805,0.0882575757576
35120000,94.6664325994,146.239270827,68.8800134856,0.779,0.1875,0.5855,0.0215,0.1845,0.206,0.114666619612,0.0205,0.1845,0.205,0.109325710521,0.0205,0.1845,0.205,0.109325710521,0.0205,0.1845,0.205,0.109325710521,0.02,0.1845,0.2045,0.106825710521,0.02,0.1565,0.1765,0.116336580087
35120000,94.767214809,146.994745169,68.653449629,0.7875,0.198,0.5775,0.03,0.1785,0.2085,0.18222758601,0.03,0.1785,0.2085,0.18222758601,0.03,0.1785,0.2085,0.18222758601,0.014,0.1785,0.1925,0.0822275860105,0.014,0.1785,0.1925,0.0822275860105,0.014,0.1785,0.1925,0.0822275860105
35120000,95.163048035,147.514762681,68.9871907118,0.771,0.179,0.583,0.013,0.143,0.156,0.0918096405229,0.013,0.143,0.156,0.0918096405229,0.013,0.143,0.156,0.0918096405229,0.013,0.143,0.156,0.0918096405229,0.013,0.143,0.156,0.0918096405229,0.013,0.143,0.156,0.0918096405229
35120000,95.1898685566,146.527393557,69.5211060564,0.759,0.191,0.5715,0.037,0.188,0.225,0.197875494071,0.03,0.188,0.218,0.158102766798,0.03,0.188,0.218,0.158102766798,0.03,0.188,0.218,0.158102766798,0.03,0.188,0.218,0.158102766798,0.03,0.1875,0.2175,0.158668889987
35120000,95.2133770595,146.255661261,69.6922349588,0.7565,0.1895,0.573,0.0125,0.186,0.1985,0.0678467908903,0.0125,0.186,0.1985,0.0678467908903,0.0125,0.186,0.1985,0.0678467908903,0.0125,0.186,0.1985,0.0678467908903,0.0125,0.186,0.1985,0.0678467908903,0.0125,0.184,0.1965,0.0688819875776
35120000,95.3756269091,147.983832334,69.0715241964,0.7485,0.1885,0.5585,0.018,0.1855,0.2035,0.0974954710145,0.015,0.1855,0.2005,0.0811911231884,0.015,0.1855,0.2005,0.0811911231884,0.015,0.1845,0.1995,0.0814085144928,0.015,0.1845,0.1995,0.0814085144928,0.015,0.1845,0.1995,0.0814085144928
35120000,95.4735275941,147.386790865,69.5168959584,0.7555,0.183,0.574,0.029,0.1815,0.2105,0.159204133729,0.029,0.1815,0.2105,0.159204133729,0.029,0.1815,0.2105,0.159204133729,0.029,0.1815,0.2105,0.159204133729,0.029,0.1775,0.2065,0.163533138058,0.029,0.1775,0.2065,0.163533138058
35120000,95.6177047224,148.446382615,69.2033657759,0.7665,0.1825,0.587,0.017,0.1695,0.1865,0.100912855261,0.017,0.1695,0.1865,0.100912855261,0.017,0.1695,0.1865,0.100912855261,0.017,0.1695,0.1865,0.100912855261,0.017,0.1695,0.1865,0.100912855261,0.017,0.1695,0.1865,0.100912855261
35120000,95.6232237823,146.566793657,70.1514388448,0.7385,0.1845,0.5485,0.017,0.1665,0.1835,0.103642676768,0.015,0.1665,0.1815,0.092279040404,0.015,0.1665,0.1815,0.092279040404,0.015,0.166,0.181,0.0924873737374,0.015,0.166,0.181,0.0924873737374,0.015,0.166,0.181,0.0924873737374
35120000,95.9123501629,148.892405703,69.4223223928,0.74,0.195,0.542,0.023,0.194,0.217,0.120811100132,0.023,0.194,0.217,0.120811100132,0.023,0.194,0.217,0.120811100132,0.021,0.194,0.215,0.110394433465,0.021,0.194,0.215,0.110394433465,0.021,0.194,0.215,0.110394433465
35120000,96.0775294562,147.480207254,70.3761905572,0.752,0.1885,0.56,0.0095,0.1765,0.186,0.053704004329,0.0095,0.1765,0.186,0.053704004329,0.0095,0.1765,0.186,0.053704004329,0.0095,0.1765,0.186,0.053704004329,0.0095,0.1765,0.186,0.053704004329,0.0095,0.1765,0.186,0.053704004329
35120000,96.5461934687,147.9267624,70.8559090033,0.7575,0.185,0.5745,0.031,0.178,0.209,0.172988579403,0.031,0.178,0.209,0.172988579403,0.031,0.178,0.209,0.172988579403,0.031,0.178,0.209,0.172988579403,0.031,0.178,0.209,0.172988579403,0.031,0.178,0.209,0.172988579403
35120000,97.0995175574,146.860832162,72.218860255,0.717,0.182,0.5255,0.022,0.178,0.2,0.130379885815,0.02,0.178,0.198,0.119510320597,0.017,0.178,0.195,0.0986769872639,0.017,0.178,0.195,0.0986769872639,0.014,0.1735,0.1875,0.0793105285592,0.014,0.1735,0.1875,0.0793105285592
35120000,97.6271012626,147.474772419,72.7032656844,0.709,0.173,0.436,0.012,0.165,0.177,0.0736166007905,0.012,0.165,0.177,0.0736166007905,0.012,0.165,0.177,0.0736166007905,0.012,0.165,0.177,0.0736166007905,0.012,0.164,0.176,0.0738636363636,0.012,0.164,0.176,0.0738636363636
35120000,97.6487476391,148.70357702,72.1213329488,0.732,0.181,0.549,0.015,0.168,0.183,0.0890286796537,0.015,0.165,0.18,0.0900207431457,0.015,0.165,0.18,0.0900207431457,0.014,0.165,0.179,0.0843389249639,0.014,0.165,0.179,0.0843389249639,0.014,0.165,0.179,0.0843389249639
35120000,97.9398377729,150.172748945,71.8233821867,0.7495,0.174,0.5785,0.0275,0.174,0.2015,0.15909679089,0.0275,0.17,0.1975,0.162202380952,0.0275,0.17,0.1975,0.162202380952,0.0235,0.17,0.1935,0.138392857143,0.0235,0.17,0.1935,0.138392857143,0.0235,0.17,0.1935,0.138392857143
35120000,97.9651724136,149.821355343,72.0370809487,0.7445,0.1765,0.5685,0.0385,0.1625,0.201,0.235561420845,0.0385,0.1625,0.201,0.235561420845,0.0385,0.1625,0.201,0.235561420845,0.033,0.1605,0.1935,0.208594093105,0.033,0.1605,0.1935,0.208594093105,0.033,0.1605,0.1935,0.208594093105
35120000,98.2149147458,150.249306371,72.1977189332,0.745,0.183,0.5635,0.012,0.1765,0.1885,0.0704521927348,0.012,0.1765,0.1885,0.0704521927348,0.012,0.1765,0.1885,0.0704521927348,0.012,0.1765,0.1885,0.0704521927348,0.012,0.1765,0.1885,0.0704521927348,0.012,0.1765,0.1885,0.0704521927348
35120000,98.7301162213,150.10079977,73.0447744471,0.747,0.1825,0.5635,0.0125,0.1785,0.191,0.0697875494071,0.0125,0.1785,0.191,0.0697875494071,0.0125,0.1785,0.191,0.0697875494071,0.0125,0.1785,0.191,0.0697875494071,0.0125,0.1785,0.191,0.0697875494071,0.0125,0.1785,0.191,0.0697875494071
35200000,87.8415534654,137.551545185,62.9865576056,0.811,0.1985,0.6145,0.01,0.196,0.206,0.0508695652174,0.01,0.196,0.206,0.0508695652174,0.01,0.196,0.206,0.0508695652174,0.01,0.196,0.206,0.0508695652174,0.01,0.196,0.206,0.0508695652174,0.01,0.196,0.206,0.0508695652174
35200000,87.9726178609,137.505184187,63.2063346979,0.7665,0.172,0.568,0.011,0.167,0.178,0.0645409466741,0.011,0.167,0.178,0.0645409466741,0.011,0.167,0.178,0.0645409466741,0.011,0.167,0.178,0.0645409466741,0.011,0.167,0.178,0.0645409466741,0.011,0.163,0.174,0.0666113400488
35200000,88.5213394824,135.226563665,65.1687273911,0.686,0.202,0.4885,0.018,0.174,0.192,0.104050343249,0.012,0.174,0.186,0.0714416475973,0.012,0.174,0.186,0.0714416475973,0.012,0.174,0.186,0.0714416475973,0.012,0.174,0.186,0.0714416475973,0.012,0.174,0.186,0.0714416475973
35200000,89.6119516637,141.304183264,63.7658358634,0.819,0.2025,0.6165,0.016,0.182,0.198,0.086332756917,0.016,0.182,0.198,0.086332756917,0.016,0.182,0.198,0.086332756917,0.016,0.182,0.198,0.086332756917,0.016,0.182,0.198,0.086332756917,0.016,0.182,0.198,0.086332756917
35200000,90.13551082,138.150559121,66.1279866697,0.758,0.198,0.562,0.03,0.192,0.222,0.154428904429,0.03,0.192,0.222,0.154428904429,0.03,0.192,0.222,0.154428904429,0.028,0.192,0.22,0.143065268065,0.028,0.186,0.214,0.151844532279,0.028,0.186,0.214,0.151844532279
35200000,90.247136933,138.769703569,65.9858536152,0.773,0.1935,0.5785,0.0255,0.179,0.2045,0.136186417749,0.0255,0.179,0.2045,0.136186417749,0.0255,0.179,0.2045,0.136186417749,0.0255,0.179,0.2045,0.136186417749,0.0255,0.179,0.2045,0.136186417749,0.025,0.179,0.204,0.133345508658
35200000,90.3046164936,133.892162658,68.5108434116,0.734,0.196,0.5355,0.0185,0.1925,0.211,0.0958482142857,0.0185,0.1925,0.211,0.0958482142857,0.0185,0.1925,0.211,0.0958482142857,0.018,0.1925,0.2105,0.093244047619,0.018,0.1885,0.2065,0.0950556418219,0.0175,0.1885,0.206,0.0924514751553
35200000,91.5234028613,140.018519526,67.2758445292,0.7135,0.177,0.5145,0.0135,0.158,0.1715,0.0957532051282,0.0135,0.142,0.1555,0.101355446025,0.0135,0.142,0.1555,0.101355446025,0.0135,0.142,0.1555,0.101355446025,0.0135,0.142,0.1555,0.101355446025,0.0135,0.142,0.1555,0.101355446025
35200000,91.8419959681,141.781691703,66.8721481008,0.7615,0.2005,0.5695,0.029,0.1915,0.2205,0.151268115942,0.029,0.1905,0.2195,0.151494565217,0.029,0.1905,0.2195,0.151494565217,0.029,0.1905,0.2195,0.151494565217,0.029,0.1905,0.2195,0.151494565217,0.029,0.1825,0.2115,0.153577898551
35200000,92.008151227,144.05890842,65.9827726307,0.811,0.185,0.617,0.024,0.182,0.206,0.130570652174,0.024,0.182,0.206,0.130570652174,0.024,0.182,0.206,0.130570652174,0.024,0.182,0.206,0.130570652174,0.0235,0.182,0.2055,0.127966485507,0.023,0.182,0.205,0.125362318841
35200000,92.436501084,142.68905881,67.3102222211,0.7745,0.1975,0.5715,0.01,0.1935,0.2035,0.0514136904762,0.01,0.1935,0.2035,0.0514136904762,0.01,0.1935,0.2035,0.0514136904762,0.01,0.1935,0.2035,0.0514136904762,0.01,0.1935,0.2035,0.0514136904762,0.01,0.1935,0.2035,0.0514136904762
35200000,92.6403094303,143.623202985,67.1488626532,0.786,0.1955,0.597,0.0175,0.185,0.2025,0.0948101943347,0.0175,0.185,0.2025,0.0948101943347,0.0175,0.184,0.2015,0.0954895421607,0.0175,0.184,0.2015,0.0954895421607,0.0175,0.184,0.2015,0.0954895421607,0.0175,0.184,0.2015,0.0954895421607
35200000,92.7589206736,142.246858506,68.0149517573,0.73,0.1995,0.529,0.015,0.1965,0.2115,0.0775744047619,0.015,0.1965,0.2115,0.0775744047619,0.015,0.1965,0.2115,0.0775744047619,0.015,0.1965,0.2115,0.0775744047619,0.015,0.1965,0.2115,0.0775744047619,0.015,0.1965,0.2115,0.0775744047619
35200000,92.8807616078,145.085687031,66.7782988963,0.793,0.196,0.5985,0.026,0.1875,0.2135,0.137713664101,0.016,0.1875,0.2035,0.0856303307676,0.016,0.1875,0.2035,0.0856303307676,0.016,0.1875,0.2035,0.0856303307676,0.0155,0.1875,0.203,0.0823408570834,0.0155,0.1875,0.203,0.0823408570834
35200000,93.177694354,142.446464464,68.5433092992,0.7565,0.202,0.557,0.027,0.2,0.227,0.135417363434,0.027,0.2,0.227,0.135417363434,0.027,0.1995,0.2265,0.135609671126,0.027,0.1995,0.2265,0.135609671126,0.027,0.1995,0.2265,0.135609671126,0.027,0.1995,0.2265,0.135609671126
35200000,93.7695993999,143.927569959,68.6906141203,0.7855,0.193,0.5905,0.056,0.176,0.232,0.323672477884,0.038,0.176,0.214,0.216529620742,0.038,0.176,0.214,0.216529620742,0.038,0.176,0.214,0.216529620742,0.038,0.176,0.214,0.216529620742,0.038,0.176,0.214,0.216529620742
35200000,93.7763056456,143.866060449,68.7314282438,0.7645,0.202,0.572,0.043,0.193,0.236,0.22196868349,0.035,0.189,0.224,0.185302016824,0.035,0.189,0.224,0.185302016824,0.031,0.189,0.22,0.162574744096,0.019,0.189,0.208,0.100074744096,0.019,0.189,0.208,0.100074744096
35200000,94.115517208,144.370042735,68.9882544447,0.7455,0.1985,0.548,0.0105,0.192,0.2025,0.0539907329989,0.0105,0.192,0.2025,0.0539907329989,0.0105,0.192,0.2025,0.0539907329989,0.0105,0.192,0.2025,0.0539907329989,0.0105,0.192,0.2025,0.0539907329989,0.0105,0.192,0.2025,0.0539907329989
35200000,94.2164236226,145.623306357,68.5129822554,0.788,0.1935,0.599,0.0175,0.1845,0.202,0.0945067523057,0.0175,0.1845,0.202,0.0945067523057,0.0175,0.1845,0.202,0.0945067523057,0.0175,0.1845,0.202,0.0945067523057,0.0175,0.1845,0.202,0.0945067523057,0.0175,0.1845,0.202,0.0945067523057
35200000,94.2472290527,145.436836069,68.6524255446,0.7765,0.198,0.569,0.0325,0.194,0.2265,0.168152173913,0.0325,0.194,0.2265,0.168152173913,0.0325,0.194,0.2265,0.168152173913,0.0325,0.194,0.2265,0.168152173913,0.0325,0.193,0.2255,0.168360507246,0.0325,0.193,0.2255,0.168360507246
35200000,94.5757776278,145.02753336,69.3498997615,0.7495,0.2045,0.548,0.0125,0.2005,0.213,0.063131270903,0.0125,0.1965,0.209,0.0639646042363,0.0125,0.1965,0.209,0.0639646042363,0.0125,0.1965,0.209,0.0639646042363,0.0125,0.1925,0.205,0.0648341694537,0.0125,0.1925,0.205,0.0648341694537
35200000,94.5896833432,146.538858594,68.6150957177,0.7745,0.191,0.5835,0.0085,0.1725,0.181,0.0491806457431,0.0085,0.1725,0.181,0.0491806457431,0.0085,0.1725,0.181,0.0491806457431,0.0085,0.1725,0.181,0.0491806457431,0.0085,0.1705,0.179,0.0497758838384,0.0085,0.1705,0.179,0.0497758838384
35200000,94.7973990616,144.156213847,70.1179916691,0.742,0.194,0.538,0.0115,0.192,0.2035,0.0626869326326,0.0115,0.192,0.2035,0.0626869326326,0.0115,0.192,0.2035,0.0626869326326,0.0115,0.192,0.2035,0.0626869326326,0.0115,0.192,0.2035,0.0626869326326,0.0115,0.192,0.2035,0.0626869326326
35200000,95.3013125178,146.957762655,69.473087449,0.7685,0.2565,0.5665,0.0135,0.2245,0.238,0.063945983825,0.0135,0.2245,0.238,0.063945983825,0.0135,0.2245,0.238,0.063945983825,0.0135,0.2245,0.238,0.063945983825,0.0135,0.2245,0.238,0.063945983825,0.0135,0.2245,0.238,0.063945983825
35200000,95.7265965986,147.14847351,70.0156581431,0.748,0.202,0.559,0.012,0.196,0.208,0.0616987179487,0.012,0.196,0.208,0.0616987179487,0.012,0.196,0.208,0.0616987179487,0.011,0.196,0.207,0.0564903846154,0.011,0.196,0.207,0.0564903846154,0.011,0.196,0.207,0.0564903846154
35200000,95.7929204293,145.531644874,70.9235582067,0.7625,0.194,0.5675,0.024,0.1895,0.2135,0.122402303313,0.024,0.1895,0.2135,0.122402303313,0.024,0.1895,0.2135,0.122402303313,0.024,0.1895,0.2135,0.122402303313,0.024,0.1895,0.2135,0.122402303313,0.024,0.1895,0.2135,0.122402303313
35200000,95.9735294653,147.097713158,70.4114376191,0.7695,0.1935,0.5805,0.017,0.1775,0.1945,0.0909375,0.017,0.1775,0.1945,0.0909375,0.017,0.1775,0.1945,0.0909375,0.017,0.177,0.194,0.0910507246377,0.017,0.177,0.194,0.0910507246377,0.017,0.177,0.194,0.0910507246377
35200000,96.0664589458,146.478851581,70.8602626283,0.745,0.202,0.5495,0.02,0.1905,0.2105,0.10794060559,0.02,0.1905,0.2105,0.10794060559,0.02,0.1905,0.2105,0.10794060559,0.016,0.1865,0.2025,0.0929531369184,0.016,0.1855,0.2015,0.0935781369184,0.016,0.1855,0.2015,0.0935781369184
35200000,96.1108547431,147.94523257,70.1936658295,0.738,0.1925,0.548,0.0165,0.1905,0.207,0.0869861660079,0.0165,0.1905,0.207,0.0869861660079,0.0165,0.1905,0.207,0.0869861660079,0.0165,0.1905,0.207,0.0869861660079,0.0125,0.1905,0.203,0.0661528326746,0.0125,0.1905,0.203,0.0661528326746
35200000,96.3767783453,147.613039432,70.7586478021,0.7465,0.1965,0.516,0.019,0.1905,0.2095,0.101378838553,0.019,0.1905,0.2095,0.101378838553,0.019,0.19,0.209,0.101625874126,0.019,0.19,0.209,0.101625874126,0.019,0.19,0.209,0.101625874126,0.019,0.19,0.209,0.101625874126
