ID,mbp,sbp,dbp,cp,sut,dt,dt10,st10,st10_p_dt10,st10_d_dt10,dt25,st25,st25_p_dt25,st25_d_dt25,dt33,st33,st33_p_dt33,st33_d_dt33,dt50,st50,st50_p_dt50,st50_d_dt50,dt66,st66,st66_p_dt66,st66_d_dt66,dt75,st75,st75_p_dt75,st75_d_dt75
34040000,94.5963229111,131.364896519,76.2120361074,0.7525,0.208,0.552,0.0095,0.207,0.2165,0.0456196581197,0.0095,0.207,0.2165,0.0456196581197,0.0095,0.207,0.2165,0.0456196581197,0.0095,0.207,0.2165,0.0456196581197,0.0095,0.207,0.2165,0.0456196581197,0.0095,0.207,0.2165,0.0456196581197
34040000,94.5994407429,130.983801042,76.4072605933,0.738,0.217,0.5365,0.013,0.2,0.213,0.0680661231884,0.013,0.2,0.213,0.0680661231884,0.013,0.2,0.213,0.0680661231884,0.013,0.2,0.213,0.0680661231884,0.013,0.2,0.213,0.0680661231884,0.013,0.2,0.213,0.0680661231884
34040000,95.3602250438,132.903527712,76.5885737095,0.743,0.223,0.535,0.0095,0.216,0.2255,0.0443537802777,0.0095,0.216,0.2255,0.0443537802777,0.0095,0.216,0.2255,0.0443537802777,0.0095,0.216,0.2255,0.0443537802777,0.0095,0.214,0.2235,0.0446008158508,0.0095,0.214,0.2235,0.0446008158508
34040000,95.5339052847,132.390451021,77.1056324165,0.743,0.275,0.5455,0.0155,0.2685,0.284,0.0614490971196,0.0155,0.2685,0.284,0.0614490971196,0.0155,0.2685,0.284,0.0614490971196,0.0155,0.2685,0.284,0.0614490971196,0.0155,0.2685,0.284,0.0614490971196,0.0155,0.2685,0.284,0.0614490971196
34040000,95.581740298,132.506289699,77.1194655974,0.7465,0.312,0.5045,0.0135,0.3035,0.317,0.0444917237764,0.0135,0.3035,0.317,0.0444917237764,0.0135,0.3035,0.317,0.0444917237764,0.0135,0.3035,0.317,0.0444917237764,0.0135,0.2995,0.313,0.0454386934733,0.0135,0.2995,0.313,0.0454386934733
34040000,96.0234585304,134.793843286,76.6382661528,0.742,0.21,0.5085,0.0145,0.2085,0.223,0.0693862478102,0.0145,0.2085,0.223,0.0693862478102,0.0145,0.2085,0.223,0.0693862478102,0.0145,0.2085,0.223,0.0693862478102,0.0145,0.2085,0.223,0.0693862478102,0.0145,0.2085,0.223,0.0693862478102
34040000,96.8861024278,134.994013966,77.8321466588,0.7735,0.214,0.57,0.013,0.203,0.216,0.063342885185,0.013,0.203,0.216,0.063342885185,0.013,0.203,0.216,0.063342885185,0.013,0.203,0.216,0.063342885185,0.013,0.203,0.216,0.063342885185,0.013,0.203,0.216,0.063342885185
34040000,96.8865711645,135.408666966,77.6255232638,0.7505,0.2145,0.443,0.013,0.2065,0.2195,0.0620625851604,0.013,0.2065,0.2195,0.0620625851604,0.013,0.2065,0.2195,0.0620625851604,0.013,0.2065,0.2195,0.0620625851604,0.013,0.2065,0.2195,0.0620625851604,0.013,0.2065,0.2195,0.0620625851604
34040000,96.914241387,135.853199825,77.4447621679,0.754,0.208,0.5545,0.0125,0.203,0.2155,0.0631960631961,0.0125,0.203,0.2155,0.0631960631961,0.0125,0.203,0.2155,0.0631960631961,0.0125,0.203,0.2155,0.0631960631961,0.0125,0.203,0.2155,0.0631960631961,0.0125,0.203,0.2155,0.0631960631961
34040000,97.3070271507,136.456102656,77.7324893983,0.7505,0.2095,0.5485,0.0115,0.209,0.2205,0.0556274442144,0.0115,0.209,0.2205,0.0556274442144,0.0115,0.209,0.2205,0.0556274442144,0.0115,0.209,0.2205,0.0556274442144,0.0115,0.209,0.2205,0.0556274442144,0.0115,0.209,0.2205,0.0556274442144
34040000,98.0654258936,138.026464852,78.0849064144,0.732,0.268,0.456,0.02,0.268,0.288,0.0765503875969,0.02,0.268,0.288,0.0765503875969,0.02,0.268,0.288,0.0765503875969,0.02,0.268,0.288,0.0765503875969,0.02,0.268,0.288,0.0765503875969,0.02,0.268,0.288,0.0765503875969
34040000,98.1026908308,135.946399599,79.1808364469,0.7645,0.267,0.4355,0.011,0.2635,0.2745,0.0437362726098,0.011,0.2635,0.2745,0.0437362726098,0.011,0.2635,0.2745,0.0437362726098,0.011,0.2635,0.2745,0.0437362726098,0.011,0.2635,0.2745,0.0437362726098,0.011,0.2635,0.2745,0.0437362726098
34040000,98.7141107827,138.345607964,78.8983621919,0.731,0.212,0.5205,0.0245,0.195,0.2195,0.12691626409,0.0245,0.195,0.2195,0.12691626409,0.0245,0.195,0.2195,0.12691626409,0.0245,0.195,0.2195,0.12691626409,0.0245,0.195,0.2195,0.12691626409,0.0245,0.195,0.2195,0.12691626409
34040000,98.7171238605,138.545240775,78.803065403,0.7535,0.2035,0.5475,0.0175,0.1455,0.163,0.125418548842,0.0175,0.1455,0.163,0.125418548842,0.0175,0.1455,0.163,0.125418548842,0.0175,0.1455,0.163,0.125418548842,0.0175,0.1455,0.163,0.125418548842,0.0175,0.1455,0.163,0.125418548842
34040000,98.7599256943,139.894618081,78.1925795007,0.7545,0.277,0.548,0.021,0.272,0.293,0.0846816770186,0.021,0.272,0.293,0.0846816770186,0.021,0.272,0.293,0.0846816770186,0.021,0.272,0.293,0.0846816770186,0.021,0.272,0.293,0.0846816770186,0.021,0.272,0.293,0.0846816770186
34040000,99.0995724871,138.877160368,79.2107785467,0.75,0.273,0.536,0.013,0.269,0.282,0.0456908684016,0.013,0.269,0.282,0.0456908684016,0.013,0.269,0.282,0.0456908684016,0.013,0.269,0.282,0.0456908684016,0.013,0.269,0.282,0.0456908684016,0.013,0.269,0.282,0.0456908684016
34040000,99.1721877315,138.581070084,79.4677465552,0.734,0.2465,0.5295,0.008,0.238,0.246,0.0348042582418,0.008,0.238,0.246,0.0348042582418,0.008,0.238,0.246,0.0348042582418,0.008,0.238,0.246,0.0348042582418,0.008,0.238,0.246,0.0348042582418,0.008,0.238,0.246,0.0348042582418
34040000,99.2290712127,139.862658304,78.9122776672,0.805,0.203,0.589,0.0085,0.175,0.1835,0.048334478022,0.0085,0.175,0.1835,0.048334478022,0.0085,0.175,0.1835,0.048334478022,0.0085,0.175,0.1835,0.048334478022,0.0085,0.175,0.1835,0.048334478022,0.0085,0.175,0.1835,0.048334478022
34040000,101.26326057,143.378045202,80.2058682538,0.741,0.2025,0.5335,0.0115,0.194,0.2055,0.0603781122259,0.0115,0.194,0.2055,0.0603781122259,0.0115,0.194,0.2055,0.0603781122259,0.0115,0.19,0.2015,0.0611473429952,0.0115,0.19,0.2015,0.0611473429952,0.0115,0.19,0.2015,0.0611473429952
34040000,101.90530804,144.527149302,80.594387409,0.7595,0.192,0.484,0.016,0.182,0.198,0.0895792748918,0.016,0.182,0.198,0.0895792748918,0.016,0.182,0.198,0.0895792748918,0.016,0.182,0.198,0.0895792748918,0.016,0.182,0.198,0.0895792748918,0.016,0.182,0.198,0.0895792748918
34080000,91.262235257,104.34298858,84.7218585957,0.92,0.344,0.696,0.016,0.336,0.352,0.047619047619,0.016,0.336,0.352,0.047619047619,0.016,0.336,0.352,0.047619047619,0.016,0.336,0.352,0.047619047619,0.016,0.336,0.352,0.047619047619,0.016,0.336,0.352,0.047619047619
34120000,98.1353072967,133.181724275,80.6120988078,0.7595,0.207,0.552,0.011,0.2005,0.2115,0.0546314102564,0.011,0.2005,0.2115,0.0546314102564,0.011,0.2005,0.2115,0.0546314102564,0.011,0.2005,0.2115,0.0546314102564,0.011,0.2005,0.2115,0.0546314102564,0.011,0.2005,0.2115,0.0546314102564
34120000,98.2090180639,131.753686198,81.4366839967,0.7695,0.201,0.568,0.011,0.193,0.204,0.0570158102767,0.011,0.193,0.204,0.0570158102767,0.011,0.193,0.204,0.0570158102767,0.011,0.193,0.204,0.0570158102767,0.011,0.193,0.204,0.0570158102767,0.011,0.193,0.204,0.0570158102767
34120000,99.1378108294,140.918331543,78.2475504724,0.7725,0.2015,0.567,0.0125,0.195,0.2075,0.0672114389234,0.0125,0.195,0.2075,0.0672114389234,0.0125,0.195,0.2075,0.0672114389234,0.0125,0.195,0.2075,0.0672114389234,0.0125,0.195,0.2075,0.0672114389234,0.0125,0.195,0.2075,0.0672114389234
34120000,99.4278595522,140.468587106,78.9074957753,0.771,0.2415,0.5615,0.026,0.221,0.247,0.133458646617,0.026,0.221,0.247,0.133458646617,0.026,0.221,0.247,0.133458646617,0.026,0.221,0.247,0.133458646617,0.026,0.221,0.247,0.133458646617,0.026,0.221,0.247,0.133458646617
34120000,99.5179903674,133.638681835,82.4576446335,0.783,0.201,0.5785,0.0135,0.189,0.2025,0.070422705314,0.0135,0.189,0.2025,0.070422705314,0.0135,0.189,0.2025,0.070422705314,0.0135,0.189,0.2025,0.070422705314,0.0135,0.189,0.2025,0.070422705314,0.0135,0.189,0.2025,0.070422705314
34120000,99.6825850958,134.334419087,82.3566681002,0.7635,0.202,0.5575,0.015,0.1895,0.2045,0.0791944875776,0.015,0.1895,0.2045,0.0791944875776,0.015,0.1895,0.2045,0.0791944875776,0.015,0.1895,0.2045,0.0791944875776,0.015,0.1895,0.2045,0.0791944875776,0.015,0.1895,0.2045,0.0791944875776
34120000,99.7048518455,142.292664021,78.4109457579,0.7735,0.196,0.569,0.008,0.1955,0.2035,0.0409737318841,0.008,0.1955,0.2035,0.0409737318841,0.008,0.1955,0.2035,0.0409737318841,0.008,0.1955,0.2035,0.0409737318841,0.008,0.1955,0.2035,0.0409737318841,0.008,0.1955,0.2035,0.0409737318841
34120000,100.491094272,140.667099225,80.4030917961,0.736,0.2655,0.5285,0.016,0.2635,0.2795,0.0644868023597,0.016,0.2635,0.2795,0.0644868023597,0.016,0.2635,0.2795,0.0644868023597,0.016,0.2635,0.2795,0.0644868023597,0.016,0.2635,0.2795,0.0644868023597,0.016,0.2635,0.2795,0.0644868023597
34120000,101.395962881,143.765342987,80.2112728281,0.778,0.2425,0.497,0.0175,0.226,0.2435,0.0753284598174,0.0175,0.226,0.2435,0.0753284598174,0.0175,0.226,0.2435,0.0753284598174,0.0175,0.226,0.2435,0.0753284598174,0.0175,0.226,0.2435,0.0753284598174,0.0175,0.226,0.2435,0.0753284598174
34120000,101.834792584,144.727731443,80.3883231549,0.738,0.214,0.5495,0.0125,0.2,0.2125,0.0661525974026,0.0125,0.2,0.2125,0.0661525974026,0.0125,0.2,0.2125,0.0661525974026,0.0125,0.2,0.2125,0.0661525974026,0.0125,0.2,0.2125,0.0661525974026,0.0125,0.2,0.2125,0.0661525974026
34120000,102.152204529,133.815773238,86.3204201741,0.765,0.1995,0.561,0.0185,0.189,0.2075,0.0976222826087,0.0185,0.189,0.2075,0.0976222826087,0.0185,0.189,0.2075,0.0976222826087,0.0185,0.189,0.2075,0.0976222826087,0.0185,0.189,0.2075,0.0976222826087,0.0185,0.189,0.2075,0.0976222826087
34120000,102.217946725,137.72352426,84.4651579566,0.7725,0.207,0.567,0.016,0.199,0.215,0.0829173634337,0.016,0.199,0.215,0.0829173634337,0.016,0.199,0.215,0.0829173634337,0.016,0.199,0.215,0.0829173634337,0.016,0.199,0.215,0.0829173634337,0.016,0.199,0.215,0.0829173634337
34120000,102.911192514,145.790367747,81.471604898,0.7725,0.244,0.552,0.0225,0.242,0.2645,0.102634457933,0.0225,0.242,0.2645,0.102634457933,0.0225,0.242,0.2645,0.102634457933,0.0225,0.242,0.2645,0.102634457933,0.0225,0.242,0.2645,0.102634457933,0.0225,0.242,0.2645,0.102634457933
34120000,103.079483588,145.320398801,81.9590259816,0.7505,0.186,0.5555,0.02,0.181,0.201,0.115553830228,0.02,0.181,0.201,0.115553830228,0.02,0.181,0.201,0.115553830228,0.02,0.181,0.201,0.115553830228,0.02,0.181,0.201,0.115553830228,0.02,0.181,0.201,0.115553830228
34120000,103.129956833,135.699911535,86.8449794815,0.7475,0.1955,0.5515,0.0245,0.191,0.2155,0.127765151515,0.0245,0.191,0.2155,0.127765151515,0.0245,0.191,0.2155,0.127765151515,0.0245,0.191,0.2155,0.127765151515,0.0245,0.191,0.2155,0.127765151515,0.0245,0.191,0.2155,0.127765151515
34120000,103.897251515,140.136296557,85.777728994,0.7705,0.2075,0.5685,0.013,0.207,0.22,0.0628846153846,0.013,0.207,0.22,0.0628846153846,0.013,0.207,0.22,0.0628846153846,0.013,0.207,0.22,0.0628846153846,0.013,0.207,0.22,0.0628846153846,0.013,0.207,0.22,0.0628846153846
34120000,103.932000446,147.560441821,82.1177797589,0.7665,0.1955,0.5485,0.0085,0.18,0.1885,0.0495209176788,0.0085,0.18,0.1885,0.0495209176788,0.0085,0.18,0.1885,0.0495209176788,0.0085,0.18,0.1885,0.0495209176788,0.0085,0.18,0.1885,0.0495209176788,0.0085,0.18,0.1885,0.0495209176788
34120000,104.293410195,147.516418394,82.681906096,0.77,0.285,0.5225,0.02,0.278,0.298,0.0905346486421,0.02,0.278,0.298,0.0905346486421,0.02,0.278,0.298,0.0905346486421,0.02,0.278,0.298,0.0905346486421,0.02,0.278,0.298,0.0905346486421,0.02,0.278,0.298,0.0905346486421
34120000,105.521696212,140.46524826,88.0499201872,0.7525,0.203,0.549,0.0215,0.193,0.2145,0.109489966555,0.0215,0.193,0.2145,0.109489966555,0.0215,0.193,0.2145,0.109489966555,0.0215,0.193,0.2145,0.109489966555,0.0215,0.193,0.2145,0.109489966555,0.0215,0.193,0.2145,0.109489966555
34120000,105.665892526,148.791300941,84.103188318,0.752,0.1845,0.558,0.027,0.175,0.202,0.15560888387,0.027,0.175,0.202,0.15560888387,0.027,0.175,0.202,0.15560888387,0.027,0.175,0.202,0.15560888387,0.027,0.175,0.202,0.15560888387,0.027,0.175,0.202,0.15560888387
34120000,106.605454637,139.498547511,90.1589081999,0.7305,0.1915,0.535,0.0155,0.1895,0.205,0.0813486875443,0.0155,0.1895,0.205,0.0813486875443,0.0155,0.1895,0.205,0.0813486875443,0.0155,0.1875,0.203,0.0823368298368,0.0155,0.1875,0.203,0.0823368298368,0.0155,0.1875,0.203,0.0823368298368
34120000,106.624857892,138.66080193,90.6068858729,0.739,0.204,0.5365,0.0135,0.187,0.2005,0.0710606060606,0.0135,0.187,0.2005,0.0710606060606,0.0135,0.187,0.2005,0.0710606060606,0.0135,0.187,0.2005,0.0710606060606,0.0135,0.187,0.2005,0.0710606060606,0.0135,0.187,0.2005,0.0710606060606
34120000,106.647932122,142.00205464,88.9708708626,0.7475,0.203,0.552,0.016,0.191,0.207,0.0853125,0.016,0.191,0.207,0.0853125,0.016,0.191,0.207,0.0853125,0.016,0.191,0.207,0.0853125,0.016,0.191,0.207,0.0853125,0.016,0.191,0.207,0.0853125
34120000,106.762264421,140.544970943,89.8709111598,0.744,0.2005,0.541,0.022,0.1985,0.2205,0.110773411371,0.022,0.1985,0.2205,0.110773411371,0.022,0.1985,0.2205,0.110773411371,0.022,0.1985,0.2205,0.110773411371,0.022,0.1985,0.2205,0.110773411371,0.022,0.1985,0.2205,0.110773411371
34120000,107.388808322,141.711934346,90.2272453097,0.7435,0.198,0.5455,0.023,0.1915,0.2145,0.121905757286,0.023,0.1915,0.2145,0.121905757286,0.023,0.1915,0.2145,0.121905757286,0.023,0.1915,0.2145,0.121905757286,0.022,0.1915,0.2135,0.117098064978,0.022,0.1915,0.2135,0.117098064978
34120000,110.129955519,145.561053793,92.4144063811,0.7245,0.197,0.5235,0.024,0.177,0.201,0.134672619048,0.024,0.177,0.201,0.134672619048,0.024,0.177,0.201,0.134672619048,0.024,0.177,0.201,0.134672619048,0.024,0.177,0.201,0.134672619048,0.024,0.177,0.201,0.134672619048
34160000,90.6416771344,132.295175892,69.8149277555,0.784,0.26,0.524,0.036,0.26,0.296,0.161585365854,0.036,0.26,0.296,0.161585365854,0.036,0.26,0.296,0.161585365854,0.036,0.26,0.296,0.161585365854,0.036,0.26,0.296,0.161585365854,0.036,0.26,0.296,0.161585365854
34160000,95.1337395909,124.498032494,80.4515931391,0.737,0.1945,0.4875,0.009,0.188,0.197,0.0478194993412,0.009,0.188,0.197,0.0478194993412,0.009,0.188,0.197,0.0478194993412,0.009,0.188,0.197,0.0478194993412,0.009,0.188,0.197,0.0478194993412,0.009,0.188,0.197,0.0478194993412
34160000,95.3087382152,139.058274659,73.4339699932,0.7325,0.2055,0.5225,0.0125,0.205,0.2175,0.0611625874126,0.0125,0.205,0.2175,0.0611625874126,0.0125,0.205,0.2175,0.0611625874126,0.0125,0.205,0.2175,0.0611625874126,0.0125,0.205,0.2175,0.0611625874126,0.0125,0.205,0.2175,0.0611625874126
34160000,95.3393329593,139.817026686,73.100486096,0.7495,0.201,0.555,0.0105,0.1845,0.195,0.0588255494505,0.0105,0.1845,0.195,0.0588255494505,0.0105,0.1845,0.195,0.0588255494505,0.0105,0.1845,0.195,0.0588255494505,0.0105,0.1845,0.195,0.0588255494505,0.0105,0.1845,0.195,0.0588255494505
34160000,95.9744192687,137.375393585,75.2739321105,0.74,0.2,0.542,0.0135,0.1865,0.2,0.0727083333333,0.0135,0.1865,0.2,0.0727083333333,0.0135,0.1865,0.2,0.0727083333333,0.0135,0.1865,0.2,0.0727083333333,0.0135,0.1865,0.2,0.0727083333333,0.0135,0.1865,0.2,0.0727083333333
34160000,96.9470236783,142.89220794,73.9744315474,0.745,0.1985,0.5475,0.016,0.1715,0.1875,0.0911160714286,0.016,0.1715,0.1875,0.0911160714286,0.016,0.1715,0.1875,0.0911160714286,0.016,0.1715,0.1875,0.0911160714286,0.016,0.171,0.187,0.0912648809524,0.016,0.171,0.187,0.0912648809524
34160000,97.5819900436,142.713952748,75.0160086911,0.703,0.198,0.509,0.012,0.179,0.191,0.0680406549972,0.012,0.179,0.191,0.0680406549972,0.012,0.179,0.191,0.0680406549972,0.012,0.179,0.191,0.0680406549972,0.012,0.179,0.191,0.0680406549972,0.012,0.179,0.191,0.0680406549972
34160000,99.7611058624,138.433571437,80.424873075,0.7535,0.193,0.5695,0.01,0.179,0.189,0.0572873199623,0.01,0.179,0.189,0.0572873199623,0.01,0.179,0.189,0.0572873199623,0.01,0.179,0.189,0.0572873199623,0.01,0.179,0.189,0.0572873199623,0.01,0.179,0.189,0.0572873199623
34160000,104.734426789,149.83073113,82.1862746189,0.695,0.197,0.496,0.021,0.1805,0.2015,0.117354837192,0.021,0.1805,0.2015,0.117354837192,0.021,0.1805,0.2015,0.117354837192,0.021,0.1805,0.2015,0.117354837192,0.021,0.1805,0.2015,0.117354837192,0.021,0.1805,0.2015,0.117354837192
34160000,104.849283712,150.068843346,82.2395038948,0.687,0.2035,0.494,0.0125,0.1975,0.21,0.0632075281804,0.0125,0.1975,0.21,0.0632075281804,0.0125,0.1975,0.21,0.0632075281804,0.0125,0.1975,0.21,0.0632075281804,0.0125,0.1975,0.21,0.0632075281804,0.0125,0.1975,0.21,0.0632075281804
34160000,105.26056532,146.709731005,84.535982478,0.751,0.263,0.516,0.0145,0.259,0.2735,0.0718023752563,0.0145,0.259,0.2735,0.0718023752563,0.0145,0.259,0.2735,0.0718023752563,0.0145,0.259,0.2735,0.0718023752563,0.0145,0.259,0.2735,0.0718023752563,0.0145,0.259,0.2735,0.0718023752563
34160000,106.47531286,150.539377813,84.4432803832,0.6875,0.2205,0.486,0.0235,0.213,0.2365,0.114846174357,0.0235,0.213,0.2365,0.114846174357,0.0235,0.213,0.2365,0.114846174357,0.0235,0.213,0.2365,0.114846174357,0.0235,0.213,0.2365,0.114846174357,0.0235,0.213,0.2365,0.114846174357
34200000,91.4887547258,134.267630819,70.099316679,0.77,0.208,0.557,0.026,0.205,0.231,0.127190635452,0.026,0.205,0.231,0.127190635452,0.026,0.205,0.231,0.127190635452,0.026,0.205,0.231,0.127190635452,0.026,0.205,0.231,0.127190635452,0.026,0.205,0.231,0.127190635452
34200000,92.8108891538,135.495269952,71.4686987547,0.8095,0.224,0.591,0.0145,0.2195,0.234,0.0666493691494,0.013,0.2195,0.2325,0.0591493691494,0.013,0.2195,0.2325,0.0591493691494,0.013,0.2195,0.2325,0.0591493691494,0.013,0.2195,0.2325,0.0591493691494,0.013,0.2195,0.2325,0.0591493691494
34200000,92.8541174696,137.405266091,70.5785431588,0.821,0.2225,0.598,0.022,0.2205,0.2425,0.106424325993,0.022,0.2205,0.2425,0.106424325993,0.022,0.2205,0.2425,0.106424325993,0.022,0.2205,0.2425,0.106424325993,0.022,0.2205,0.2425,0.106424325993,0.022,0.2205,0.2425,0.106424325993
34200000,93.7501269661,138.586305144,71.332037877,0.801,0.3215,0.5205,0.0285,0.302,0.3305,0.0818681318681,0.0285,0.302,0.3305,0.0818681318681,0.0285,0.302,0.3305,0.0818681318681,0.0285,0.302,0.3305,0.0818681318681,0.0285,0.302,0.3305,0.0818681318681,0.0085,0.302,0.3105,0.0318681318681
34200000,94.3144841621,136.657802556,73.1428249651,0.755,0.221,0.546,0.008,0.221,0.229,0.0362471580144,0.008,0.221,0.229,0.0362471580144,0.008,0.221,0.229,0.0362471580144,0.008,0.221,0.229,0.0362471580144,0.008,0.221,0.229,0.0362471580144,0.008,0.221,0.229,0.0362471580144
34200000,94.7015679157,140.346354582,71.8791745823,0.84,0.221,0.6245,0.028,0.217,0.245,0.12996031746,0.028,0.217,0.245,0.12996031746,0.028,0.217,0.245,0.12996031746,0.028,0.217,0.245,0.12996031746,0.028,0.217,0.245,0.12996031746,0.028,0.217,0.245,0.12996031746
34200000,94.9718453442,139.238878925,72.8383285537,0.7845,0.288,0.557,0.009,0.287,0.296,0.0342722059998,0.009,0.287,0.296,0.0342722059998,0.009,0.287,0.296,0.0342722059998,0.009,0.287,0.296,0.0342722059998,0.009,0.287,0.296,0.0342722059998,0.009,0.287,0.296,0.0342722059998
34200000,95.9861738522,142.542341256,72.7080901504,0.8375,0.2115,0.62,0.017,0.205,0.222,0.0825071225071,0.017,0.205,0.222,0.0825071225071,0.017,0.205,0.222,0.0825071225071,0.017,0.205,0.222,0.0825071225071,0.017,0.205,0.222,0.0825071225071,0.017,0.205,0.222,0.0825071225071
34200000,96.2443019342,141.106936978,73.8129844124,0.803,0.2275,0.5845,0.011,0.2265,0.2375,0.0484429164386,0.011,0.2265,0.2375,0.0484429164386,0.011,0.2265,0.2375,0.0484429164386,0.011,0.2265,0.2375,0.0484429164386,0.011,0.2265,0.2375,0.0484429164386,0.011,0.2265,0.2375,0.0484429164386
34200000,96.3422768482,143.479143266,72.7738436393,0.8325,0.2085,0.62,0.014,0.2045,0.2185,0.0687571225071,0.014,0.2045,0.2185,0.0687571225071,0.014,0.2045,0.2185,0.0687571225071,0.014,0.2045,0.2185,0.0687571225071,0.014,0.2045,0.2185,0.0687571225071,0.014,0.2045,0.2185,0.0687571225071
34200000,96.3997863842,142.674599738,73.2623797075,0.8085,0.2235,0.585,0.0125,0.221,0.2335,0.056305962556,0.0125,0.221,0.2335,0.056305962556,0.0125,0.221,0.2335,0.056305962556,0.0125,0.221,0.2335,0.056305962556,0.0125,0.221,0.2335,0.056305962556,0.0125,0.221,0.2335,0.056305962556
34200000,96.7229365118,143.070237343,73.5492860962,0.8255,0.322,0.6015,0.014,0.314,0.328,0.0599210344978,0.014,0.314,0.328,0.0599210344978,0.014,0.314,0.328,0.0599210344978,0.014,0.314,0.328,0.0599210344978,0.014,0.314,0.328,0.0599210344978,0.014,0.314,0.328,0.0599210344978
34200000,97.0637371414,146.811561517,72.1898249534,0.772,0.198,0.492,0.018,0.194,0.212,0.0933048433048,0.018,0.194,0.212,0.0933048433048,0.018,0.194,0.212,0.0933048433048,0.018,0.194,0.212,0.0933048433048,0.018,0.194,0.212,0.0933048433048,0.018,0.194,0.212,0.0933048433048
34200000,97.1672720281,142.044200508,74.7288077883,0.793,0.2175,0.5745,0.017,0.1985,0.2155,0.0862014253862,0.017,0.1985,0.2155,0.0862014253862,0.017,0.1985,0.2155,0.0862014253862,0.017,0.1985,0.2155,0.0862014253862,0.017,0.1985,0.2155,0.0862014253862,0.017,0.1985,0.2155,0.0862014253862
34200000,97.5504121246,143.264489191,74.6933735915,0.797,0.2285,0.5775,0.011,0.2265,0.2375,0.0498509361009,0.011,0.2265,0.2375,0.0498509361009,0.011,0.2265,0.2375,0.0498509361009,0.011,0.2265,0.2375,0.0498509361009,0.011,0.2265,0.2375,0.0498509361009,0.011,0.2265,0.2375,0.0498509361009
34200000,97.7086936109,141.838443399,75.6438187166,0.788,0.214,0.575,0.0085,0.2125,0.221,0.0401673789174,0.0085,0.2125,0.221,0.0401673789174,0.0085,0.2125,0.221,0.0401673789174,0.0085,0.2125,0.221,0.0401673789174,0.0085,0.2125,0.221,0.0401673789174,0.0085,0.2125,0.221,0.0401673789174
34200000,97.7769742755,143.787675366,74.7716237302,0.763,0.204,0.5545,0.014,0.201,0.215,0.069487010574,0.014,0.201,0.215,0.069487010574,0.014,0.201,0.215,0.069487010574,0.014,0.201,0.215,0.069487010574,0.014,0.201,0.215,0.069487010574,0.014,0.201,0.215,0.069487010574
34200000,97.9051170738,143.602661745,75.0563447385,0.7945,0.2185,0.5745,0.0105,0.2115,0.222,0.0494266381766,0.0105,0.2115,0.222,0.0494266381766,0.0105,0.2115,0.222,0.0494266381766,0.0105,0.2115,0.222,0.0494266381766,0.0105,0.2115,0.222,0.0494266381766,0.0105,0.2115,0.222,0.0494266381766
34200000,98.1691565045,144.532292085,74.9875887145,0.79,0.215,0.58,0.03,0.2135,0.2435,0.139130545381,0.03,0.2135,0.2435,0.139130545381,0.03,0.2135,0.2435,0.139130545381,0.03,0.2135,0.2435,0.139130545381,0.03,0.2135,0.2435,0.139130545381,0.03,0.2135,0.2435,0.139130545381
34200000,98.2000027414,143.39983508,75.600086572,0.7735,0.233,0.542,0.0215,0.227,0.2485,0.103721042471,0.0215,0.227,0.2485,0.103721042471,0.0215,0.227,0.2485,0.103721042471,0.0215,0.227,0.2485,0.103721042471,0.0215,0.227,0.2485,0.103721042471,0.0215,0.227,0.2485,0.103721042471
34200000,98.270824396,145.615476929,74.5984981296,0.81,0.2175,0.5885,0.0135,0.21,0.2235,0.0656481481481,0.0135,0.21,0.2235,0.0656481481481,0.0135,0.21,0.2235,0.0656481481481,0.0135,0.2095,0.223,0.0659606481481,0.0135,0.2095,0.223,0.0659606481481,0.0135,0.2095,0.223,0.0659606481481
34200000,98.7594222067,145.28345946,75.49740358,0.802,0.2145,0.5825,0.0095,0.211,0.2205,0.0450417637918,0.0095,0.211,0.2205,0.0450417637918,0.0095,0.211,0.2205,0.0450417637918,0.0095,0.211,0.2205,0.0450417637918,0.0095,0.21,0.2195,0.0453978891479,0.0095,0.21,0.2195,0.0453978891479
34200000,98.9467672493,133.491634737,81.6743335054,0.591,0.2375,0.3745,0.0125,0.2335,0.246,0.059332834174,0.0125,0.2335,0.246,0.059332834174,0.0125,0.2335,0.246,0.059332834174,0.0125,0.2335,0.246,0.059332834174,0.0125,0.2335,0.246,0.059332834174,0.0125,0.2335,0.246,0.059332834174
34200000,99.2732048446,146.135424098,75.8420952179,0.7735,0.204,0.539,0.0195,0.204,0.2235,0.0939191595442,0.0195,0.204,0.2235,0.0939191595442,0.0195,0.204,0.2235,0.0939191595442,0.0195,0.204,0.2235,0.0939191595442,0.0195,0.2,0.2195,0.0947887247616,0.0195,0.2,0.2195,0.0947887247616
34200000,99.335568221,146.621720967,75.6924918477,0.7895,0.219,0.571,0.0125,0.217,0.2295,0.0596612511052,0.0125,0.217,0.2295,0.0596612511052,0.0125,0.217,0.2295,0.0596612511052,0.0125,0.217,0.2295,0.0596612511052,0.0125,0.217,0.2295,0.0596612511052,0.0105,0.217,0.2275,0.0496612511052
34200000,99.50096067,146.321277405,76.0908023025,0.8065,0.2255,0.589,0.013,0.218,0.231,0.0610808404558,0.013,0.218,0.231,0.0610808404558,0.013,0.218,0.231,0.0610808404558,0.013,0.218,0.231,0.0610808404558,0.013,0.216,0.229,0.0623308404558,0.013,0.216,0.229,0.0623308404558
34200000,99.8916213729,146.31261138,76.6811263695,0.775,0.208,0.563,0.009,0.206,0.215,0.0442116101491,0.009,0.206,0.215,0.0442116101491,0.009,0.206,0.215,0.0442116101491,0.009,0.206,0.215,0.0442116101491,0.009,0.206,0.215,0.0442116101491,0.009,0.206,0.215,0.0442116101491
34200000,100.769177999,147.845934316,77.230799841,0.8265,0.219,0.606,0.0485,0.216,0.2645,0.219169464794,0.0485,0.216,0.2645,0.219169464794,0.0485,0.216,0.2645,0.219169464794,0.0485,0.216,0.2645,0.219169464794,0.0485,0.216,0.2645,0.219169464794,0.0485,0.216,0.2645,0.219169464794
34200000,101.375759474,146.016614663,79.0553318798,0.7795,0.2105,0.559,0.011,0.2045,0.2155,0.061266025641,0.011,0.2045,0.2155,0.061266025641,0.011,0.2045,0.2155,0.061266025641,0.011,0.2045,0.2155,0.061266025641,0.011,0.2045,0.2155,0.061266025641,0.011,0.2045,0.2155,0.061266025641
34200000,101.378857001,147.385699115,78.3754359433,0.796,0.2125,0.588,0.012,0.2065,0.2185,0.0580014525704,0.012,0.2065,0.2185,0.0580014525704,0.012,0.2065,0.2185,0.0580014525704,0.012,0.2065,0.2185,0.0580014525704,0.012,0.2065,0.2185,0.0580014525704,0.012,0.2065,0.2185,0.0580014525704
34200000,101.689313733,147.47559476,78.7961732192,0.744,0.2025,0.5295,0.017,0.1955,0.2125,0.0936852499352,0.015,0.1955,0.2105,0.0840698653199,0.015,0.1955,0.2105,0.0840698653199,0.015,0.1955,0.2105,0.0840698653199,0.013,0.1955,0.2085,0.0748106060606,0.013,0.1955,0.2085,0.0748106060606
34200000,101.949857231,149.367012129,78.2412797827,0.8,0.2095,0.588,0.014,0.1965,0.2105,0.0705053742554,0.014,0.1965,0.2105,0.0705053742554,0.014,0.1965,0.2105,0.0705053742554,0.014,0.1965,0.2105,0.0705053742554,0.014,0.1965,0.2105,0.0705053742554,0.014,0.1965,0.2105,0.0705053742554
34200000,102.190866478,149.473555655,78.5495218892,0.8025,0.2175,0.5795,0.015,0.211,0.226,0.0695398351648,0.015,0.211,0.226,0.0695398351648,0.015,0.211,0.226,0.0695398351648,0.015,0.211,0.226,0.0695398351648,0.015,0.211,0.226,0.0695398351648,0.015,0.211,0.226,0.0695398351648
34200000,102.371342138,147.480554349,79.8167360329,0.7915,0.2175,0.5835,0.0085,0.213,0.2215,0.0402913059163,0.0085,0.213,0.2215,0.0402913059163,0.0085,0.213,0.2215,0.0402913059163,0.0085,0.213,0.2215,0.0402913059163,0.0085,0.213,0.2215,0.0402913059163,0.0085,0.213,0.2215,0.0402913059163
34200000,102.393651156,149.567210606,78.8068714312,0.8095,0.2225,0.595,0.0105,0.222,0.2325,0.0472883597884,0.0105,0.222,0.2325,0.0472883597884,0.0105,0.222,0.2325,0.0472883597884,0.0105,0.222,0.2325,0.0472883597884,0.0105,0.202,0.2125,0.057208994709,0.0105,0.202,0.2125,0.057208994709
34200000,102.668487201,149.195187122,79.4051372409,0.789,0.228,0.571,0.009,0.219,0.228,0.0413815909506,0.009,0.219,0.228,0.0413815909506,0.009,0.219,0.228,0.0413815909506,0.009,0.219,0.228,0.0413815909506,0.009,0.219,0.228,0.0413815909506,0.009,0.219,0.228,0.0413815909506
34200000,102.793710985,148.312979927,80.0340765142,0.8,0.216,0.5865,0.012,0.207,0.219,0.0579212454212,0.012,0.207,0.219,0.0579212454212,0.012,0.207,0.219,0.0579212454212,0.012,0.207,0.219,0.0579212454212,0.012,0.207,0.219,0.0579212454212,0.012,0.207,0.219,0.0579212454212
34200000,104.160042964,149.473382018,81.5033734367,0.7875,0.2185,0.5445,0.01,0.205,0.215,0.0483584169454,0.01,0.205,0.215,0.0483584169454,0.01,0.205,0.215,0.0483584169454,0.01,0.205,0.215,0.0483584169454,0.01,0.205,0.215,0.0483584169454,0.01,0.205,0.215,0.0483584169454
34200000,104.211139468,149.347639735,81.6428893345,0.797,0.204,0.587,0.0115,0.195,0.2065,0.0591414141414,0.0115,0.195,0.2065,0.0591414141414,0.0115,0.195,0.2065,0.0591414141414,0.0115,0.195,0.2065,0.0591414141414,0.0115,0.195,0.2065,0.0591414141414,0.0115,0.195,0.2065,0.0591414141414
34200000,104.374663122,148.985347486,82.0693209398,0.781,0.2215,0.564,0.0155,0.219,0.2345,0.0715939153439,0.0155,0.219,0.2345,0.0715939153439,0.0155,0.219,0.2345,0.0715939153439,0.0155,0.219,0.2345,0.0715939153439,0.0155,0.219,0.2345,0.0715939153439,0.0155,0.219,0.2345,0.0715939153439
34200000,104.582990574,148.928707264,82.4101322294,0.7815,0.2095,0.572,0.014,0.1985,0.2125,0.0724466586151,0.014,0.1985,0.2125,0.0724466586151,0.014,0.1985,0.2125,0.0724466586151,0.014,0.1985,0.2125,0.0724466586151,0.014,0.1985,0.2125,0.0724466586151,0.014,0.1985,0.2125,0.0724466586151
34200000,105.120126797,149.368028682,82.996175854,0.7565,0.2165,0.537,0.0175,0.2105,0.228,0.0829783642284,0.0175,0.2105,0.228,0.0829783642284,0.0175,0.2105,0.228,0.0829783642284,0.0175,0.2105,0.228,0.0829783642284,0.0175,0.2105,0.228,0.0829783642284,0.0175,0.2105,0.228,0.0829783642284
34200000,105.261767362,149.327452878,83.2289246041,0.7665,0.2145,0.552,0.0265,0.2095,0.236,0.126301152551,0.0265,0.2095,0.236,0.126301152551,0.0265,0.2095,0.236,0.126301152551,0.0265,0.2095,0.236,0.126301152551,0.0265,0.2095,0.236,0.126301152551,0.0265,0.2095,0.236,0.126301152551
34200000,105.41497866,149.40444782,83.4202440802,0.7735,0.215,0.554,0.024,0.2095,0.2335,0.115131766382,0.024,0.2095,0.2335,0.115131766382,0.024,0.2095,0.2335,0.115131766382,0.024,0.2095,0.2335,0.115131766382,0.024,0.2095,0.2335,0.115131766382,0.024,0.2095,0.2335,0.115131766382
34200000,105.68337625,149.262303506,83.8939126214,0.765,0.2105,0.551,0.019,0.198,0.217,0.0962045940171,0.019,0.198,0.217,0.0962045940171,0.019,0.198,0.217,0.0962045940171,0.019,0.198,0.217,0.0962045940171,0.019,0.198,0.217,0.0962045940171,0.019,0.198,0.217,0.0962045940171
34200000,105.69501764,149.375189869,83.8549315264,0.6845,0.201,0.489,0.025,0.1765,0.2015,0.142655723906,0.025,0.1765,0.2015,0.142655723906,0.025,0.1765,0.2015,0.142655723906,0.025,0.1765,0.2015,0.142655723906,0.025,0.1765,0.2015,0.142655723906,0.025,0.1765,0.2015,0.142655723906
34200000,105.870819604,149.332666323,84.1398962442,0.76,0.217,0.541,0.0145,0.211,0.2255,0.0753097875943,0.0145,0.211,0.2255,0.0753097875943,0.0145,0.211,0.2255,0.0753097875943,0.0145,0.211,0.2255,0.0753097875943,0.0145,0.211,0.2255,0.0753097875943,0.0145,0.211,0.2255,0.0753097875943
34200000,106.024455123,149.298138666,84.3876133519,0.741,0.2045,0.537,0.0135,0.1935,0.207,0.0703933747412,0.0135,0.1935,0.207,0.0703933747412,0.0135,0.1935,0.207,0.0703933747412,0.0135,0.1935,0.207,0.0703933747412,0.0135,0.1935,0.207,0.0703933747412,0.0135,0.1935,0.207,0.0703933747412
34200000,106.395813239,149.42295773,84.8822409936,0.8035,0.2115,0.529,0.012,0.211,0.223,0.0571765399352,0.012,0.211,0.223,0.0571765399352,0.012,0.211,0.223,0.0571765399352,0.012,0.211,0.223,0.0571765399352,0.012,0.211,0.223,0.0571765399352,0.012,0.211,0.223,0.0571765399352
34200000,106.552939699,149.637549527,85.0106347853,0.7605,0.2065,0.547,0.011,0.197,0.208,0.0553099838969,0.011,0.197,0.208,0.0553099838969,0.011,0.197,0.208,0.0553099838969,0.011,0.197,0.208,0.0553099838969,0.011,0.197,0.208,0.0553099838969,0.011,0.197,0.208,0.0553099838969
34200000,107.266725525,149.509879201,86.1451486872,0.762,0.208,0.55,0.0085,0.206,0.2145,0.0411680911681,0.0085,0.206,0.2145,0.0411680911681,0.0085,0.206,0.2145,0.0411680911681,0.0085,0.206,0.2145,0.0411680911681,0.0085,0.206,0.2145,0.0411680911681,0.0085,0.206,0.2145,0.0411680911681
34240000,97.4029562507,141.326543371,75.4411626908,0.6325,0.271,0.4465,0.011,0.255,0.266,0.0487927350427,0.011,0.255,0.266,0.0487927350427,0.011,0.252,0.263,0.05152000777,0.011,0.252,0.263,0.05152000777,0.011,0.252,0.263,0.05152000777,0.011,0.252,0.263,0.05152000777
34240000,97.6561059745,142.679245432,75.1445362457,0.669,0.212,0.5115,0.013,0.2075,0.2205,0.0628541828542,0.013,0.2075,0.2205,0.0628541828542,0.013,0.2075,0.2205,0.0628541828542,0.013,0.2075,0.2205,0.0628541828542,0.013,0.2075,0.2205,0.0628541828542,0.013,0.2075,0.2205,0.0628541828542
34240000,102.241409988,149.038650312,78.8427898262,0.7,0.205,0.492,0.053,0.189,0.242,0.278136718354,0.053,0.189,0.242,0.278136718354,0.053,0.189,0.242,0.278136718354,0.053,0.189,0.242,0.278136718354,0.053,0.189,0.242,0.278136718354,0.053,0.189,0.242,0.278136718354
34240000,102.25072207,148.28279412,79.2346860452,0.6875,0.189,0.492,0.0085,0.1715,0.18,0.049402585639,0.0085,0.1715,0.18,0.049402585639,0.0085,0.1715,0.18,0.049402585639,0.0085,0.1715,0.18,0.049402585639,0.0085,0.1715,0.18,0.049402585639,0.0085,0.1715,0.18,0.049402585639
34240000,102.435633335,149.397553593,78.9546732064,0.708,0.2,0.5055,0.02,0.1895,0.2095,0.107358079563,0.02,0.1895,0.2095,0.107358079563,0.02,0.1895,0.2095,0.107358079563,0.02,0.1895,0.2095,0.107358079563,0.02,0.1895,0.2095,0.107358079563,0.02,0.1895,0.2095,0.107358079563
34240000,102.802763657,149.162950887,79.6226700425,0.71,0.206,0.51,0.014,0.194,0.208,0.0721557971014,0.014,0.194,0.208,0.0721557971014,0.014,0.194,0.208,0.0721557971014,0.014,0.194,0.208,0.0721557971014,0.014,0.194,0.208,0.0721557971014,0.014,0.194,0.208,0.0721557971014
34240000,103.882055881,149.223286929,81.211440357,0.6775,0.1905,0.486,0.0085,0.1855,0.194,0.0463405797101,0.0085,0.1855,0.194,0.0463405797101,0.0085,0.1855,0.194,0.0463405797101,0.0085,0.1855,0.194,0.0463405797101,0.0085,0.1855,0.194,0.0463405797101,0.0085,0.1855,0.194,0.0463405797101
34240000,103.891715311,149.601564253,81.0367908404,0.686,0.189,0.4885,0.009,0.1845,0.1935,0.0493821169772,0.009,0.1845,0.1935,0.0493821169772,0.009,0.1845,0.1935,0.0493821169772,0.009,0.184,0.193,0.0494953416149,0.009,0.184,0.193,0.0494953416149,0.009,0.184,0.193,0.0494953416149
34240000,104.842320071,149.545507654,82.4907262791,0.69,0.264,0.499,0.027,0.2595,0.2865,0.127708333333,0.027,0.2595,0.2865,0.127708333333,0.027,0.2595,0.2865,0.127708333333,0.027,0.2595,0.2865,0.127708333333,0.027,0.2595,0.2865,0.127708333333,0.027,0.2595,0.2865,0.127708333333
34240000,104.89735077,148.938226032,82.8769131389,0.6775,0.2335,0.448,0.015,0.229,0.244,0.0729415886057,0.015,0.229,0.244,0.0729415886057,0.015,0.229,0.244,0.0729415886057,0.015,0.229,0.244,0.0729415886057,0.015,0.229,0.244,0.0729415886057,0.015,0.229,0.244,0.0729415886057
34240000,105.972902028,149.955767691,83.9814691964,0.6525,0.194,0.467,0.0085,0.184,0.1925,0.0459760649978,0.0085,0.184,0.1925,0.0459760649978,0.0085,0.184,0.1925,0.0459760649978,0.0085,0.184,0.1925,0.0459760649978,0.0085,0.184,0.1925,0.0459760649978,0.0085,0.184,0.1925,0.0459760649978
34240000,107.122326356,149.75996385,85.8035076093,0.6565,0.1955,0.451,0.015,0.1895,0.2045,0.079972826087,0.015,0.1895,0.2045,0.079972826087,0.015,0.1895,0.2045,0.079972826087,0.015,0.1895,0.2045,0.079972826087,0.015,0.1895,0.2045,0.079972826087,0.015,0.1895,0.2045,0.079972826087
34240000,107.926297671,150.113587831,86.8326525913,0.685,0.2185,0.471,0.0085,0.215,0.2235,0.0436164935832,0.0085,0.215,0.2235,0.0436164935832,0.0085,0.215,0.2235,0.0436164935832,0.0085,0.215,0.2235,0.0436164935832,0.0085,0.215,0.2235,0.0436164935832,0.0085,0.215,0.2235,0.0436164935832
34480000,96.7516158482,143.976166399,73.1393405729,0.788,0.188,0.5905,0.0185,0.188,0.2065,0.0991950757576,0.0185,0.188,0.2065,0.0991950757576,0.0185,0.188,0.2065,0.0991950757576,0.0185,0.188,0.2065,0.0991950757576,0.0185,0.188,0.2065,0.0991950757576,0.0185,0.188,0.2065,0.0991950757576
34480000,97.0225462413,145.36085817,72.8533902768,0.8075,0.195,0.6095,0.012,0.1885,0.2005,0.0633518610013,0.012,0.1885,0.2005,0.0633518610013,0.012,0.1885,0.2005,0.0633518610013,0.012,0.1885,0.2005,0.0633518610013,0.012,0.1885,0.2005,0.0633518610013,0.012,0.1885,0.2005,0.0633518610013
34480000,97.5735277779,134.32990481,79.1953392619,0.633,0.2035,0.474,0.0125,0.1975,0.21,0.062474219621,0.0125,0.1975,0.21,0.062474219621,0.0125,0.1975,0.21,0.062474219621,0.0125,0.1975,0.21,0.062474219621,0.0125,0.1975,0.21,0.062474219621,0.0125,0.1975,0.21,0.062474219621
34480000,98.3004547893,145.175942501,74.8627109336,0.847,0.23,0.6235,0.0165,0.2265,0.243,0.0699162671114,0.0165,0.2265,0.243,0.0699162671114,0.0165,0.2265,0.243,0.0699162671114,0.0165,0.2265,0.243,0.0699162671114,0.0165,0.2265,0.243,0.0699162671114,0.0165,0.2265,0.243,0.0699162671114
34480000,98.9335335557,148.234067253,74.2832667072,0.825,0.175,0.625,0.013,0.172,0.185,0.078682303585,0.013,0.172,0.185,0.078682303585,0.013,0.172,0.185,0.078682303585,0.013,0.172,0.185,0.078682303585,0.013,0.172,0.185,0.078682303585,0.013,0.172,0.185,0.078682303585
34480000,99.5498958604,149.136565698,74.7565609416,0.7795,0.1945,0.585,0.012,0.1905,0.2025,0.0628487318841,0.012,0.1905,0.2025,0.0628487318841,0.012,0.1905,0.2025,0.0628487318841,0.012,0.1905,0.2025,0.0628487318841,0.012,0.1905,0.2025,0.0628487318841,0.012,0.1905,0.2025,0.0628487318841
34480000,99.7007829984,148.974545714,75.0639016406,0.7745,0.1885,0.58,0.009,0.1805,0.1895,0.0494869894598,0.0085,0.1805,0.189,0.0469869894598,0.0085,0.1805,0.189,0.0469869894598,0.0085,0.1805,0.189,0.0469869894598,0.0085,0.1805,0.189,0.0469869894598,0.0085,0.1805,0.189,0.0469869894598
34480000,100.151769121,148.832229785,75.8115387895,0.766,0.1995,0.566,0.031,0.1935,0.2245,0.159643640351,0.031,0.1935,0.2245,0.159643640351,0.031,0.1935,0.2245,0.159643640351,0.031,0.1935,0.2245,0.159643640351,0.031,0.1935,0.2245,0.159643640351,0.031,0.1935,0.2245,0.159643640351
34480000,100.330212972,149.977778201,75.506430357,0.8155,0.199,0.6195,0.0205,0.1965,0.217,0.104583333333,0.0205,0.1965,0.217,0.104583333333,0.0205,0.1965,0.217,0.104583333333,0.0205,0.1965,0.217,0.104583333333,0.0205,0.1965,0.217,0.104583333333,0.0205,0.1965,0.217,0.104583333333
34480000,100.333692929,149.756942424,75.6220681816,0.781,0.1995,0.5855,0.015,0.1935,0.2085,0.0771096837945,0.015,0.1935,0.2085,0.0771096837945,0.015,0.1935,0.2085,0.0771096837945,0.015,0.1935,0.2085,0.0771096837945,0.015,0.1935,0.2085,0.0771096837945,0.015,0.1935,0.2085,0.0771096837945
34480000,100.410197051,149.527266921,75.8516621158,0.8035,0.196,0.5935,0.012,0.1955,0.2075,0.0609375,0.012,0.1955,0.2075,0.0609375,0.012,0.1955,0.2075,0.0609375,0.012,0.1955,0.2075,0.0609375,0.012,0.1955,0.2075,0.0609375,0.012,0.1955,0.2075,0.0609375
34480000,100.443696624,150.03981379,75.6456380415,0.8015,0.199,0.6035,0.022,0.1845,0.2065,0.119589292525,0.022,0.1845,0.2065,0.119589292525,0.022,0.1845,0.2065,0.119589292525,0.022,0.1845,0.2065,0.119589292525,0.022,0.1845,0.2065,0.119589292525,0.022,0.1845,0.2065,0.119589292525
34480000,100.574262579,149.787200802,75.9677934674,0.7955,0.2,0.589,0.0105,0.19,0.2005,0.0555434782609,0.0105,0.19,0.2005,0.0555434782609,0.0105,0.19,0.2005,0.0555434782609,0.0105,0.19,0.2005,0.0555434782609,0.0105,0.19,0.2005,0.0555434782609,0.0105,0.19,0.2005,0.0555434782609
34480000,100.742655152,149.929444575,76.1492604411,0.752,0.194,0.564,0.014,0.19,0.204,0.0735968379447,0.014,0.19,0.204,0.0735968379447,0.014,0.19,0.204,0.0735968379447,0.014,0.19,0.204,0.0735968379447,0.014,0.19,0.204,0.0735968379447,0.014,0.19,0.204,0.0735968379447
34480000,101.227000204,149.79269486,76.9441528761,0.862,0.2215,0.645,0.02,0.2115,0.2315,0.0948406339031,0.02,0.2115,0.2315,0.0948406339031,0.02,0.2115,0.2315,0.0948406339031,0.02,0.2115,0.2315,0.0948406339031,0.02,0.2115,0.2315,0.0948406339031,0.02,0.2115,0.2315,0.0948406339031
34480000,101.314413442,149.848166121,77.0475371023,0.871,0.2245,0.651,0.013,0.2185,0.2315,0.0590589663959,0.013,0.2185,0.2315,0.0590589663959,0.013,0.2185,0.2315,0.0590589663959,0.013,0.2185,0.2315,0.0590589663959,0.013,0.2185,0.2315,0.0590589663959,0.013,0.2185,0.2315,0.0590589663959
34480000,101.353411176,149.963365954,77.0484337865,0.801,0.1985,0.5895,0.0205,0.1955,0.216,0.103445512821,0.0205,0.1955,0.216,0.103445512821,0.0205,0.1955,0.216,0.103445512821,0.0205,0.1955,0.216,0.103445512821,0.0205,0.1955,0.216,0.103445512821,0.0205,0.1955,0.216,0.103445512821
34480000,101.57850472,149.685707769,77.524903195,0.7665,0.196,0.573,0.016,0.19,0.206,0.0847826086957,0.016,0.19,0.206,0.0847826086957,0.016,0.19,0.206,0.0847826086957,0.014,0.19,0.204,0.0739130434783,0.014,0.19,0.204,0.0739130434783,0.014,0.19,0.204,0.0739130434783
34480000,101.6532847,149.996480171,77.4816869646,0.7845,0.1985,0.5835,0.022,0.1945,0.2165,0.1125,0.022,0.1945,0.2165,0.1125,0.022,0.1945,0.2165,0.1125,0.022,0.1945,0.2165,0.1125,0.022,0.1945,0.2165,0.1125,0.022,0.1945,0.2165,0.1125
34480000,101.857964769,150.041261726,77.7663162902,0.7945,0.206,0.596,0.019,0.201,0.22,0.0947399475524,0.019,0.201,0.22,0.0947399475524,0.019,0.201,0.22,0.0947399475524,0.019,0.201,0.22,0.0947399475524,0.019,0.201,0.22,0.0947399475524,0.019,0.201,0.22,0.0947399475524
34480000,101.974303855,149.527434886,78.1977383401,0.769,0.201,0.57,0.0095,0.184,0.1935,0.0514953886693,0.0095,0.184,0.1935,0.0514953886693,0.0095,0.184,0.1935,0.0514953886693,0.0095,0.184,0.1935,0.0514953886693,0.0095,0.184,0.1935,0.0514953886693,0.0095,0.184,0.1935,0.0514953886693
34480000,102.168568538,150.160396066,78.1726547742,0.7805,0.2055,0.5865,0.0275,0.204,0.2315,0.133095813205,0.0275,0.204,0.2315,0.133095813205,0.0275,0.204,0.2315,0.133095813205,0.0275,0.204,0.2315,0.133095813205,0.0275,0.204,0.2315,0.133095813205,0.0275,0.204,0.2315,0.133095813205
34480000,102.239860711,150.265172243,78.2272049456,0.797,0.199,0.597,0.029,0.188,0.217,0.15389745671,0.029,0.188,0.217,0.15389745671,0.029,0.188,0.217,0.15389745671,0.027,0.188,0.215,0.142533820346,0.027,0.188,0.215,0.142533820346,0.027,0.188,0.215,0.142533820346
34480000,102.26871467,150.07532972,78.3654071448,0.835,0.218,0.6335,0.0105,0.218,0.2285,0.0486211129296,0.0105,0.218,0.2285,0.0486211129296,0.0105,0.218,0.2285,0.0486211129296,0.0105,0.218,0.2285,0.0486211129296,0.0105,0.218,0.2285,0.0486211129296,0.0105,0.218,0.2285,0.0486211129296
34480000,102.472441659,150.368849113,78.524237932,0.809,0.197,0.6055,0.0205,0.1765,0.197,0.115009411884,0.0205,0.1765,0.197,0.115009411884,0.0205,0.1765,0.197,0.115009411884,0.0205,0.1765,0.197,0.115009411884,0.0205,0.1765,0.197,0.115009411884,0.0205,0.1765,0.197,0.115009411884
34480000,103.207601171,150.191876318,79.7154635981,0.7895,0.2,0.587,0.016,0.198,0.214,0.0804347826087,0.016,0.198,0.214,0.0804347826087,0.016,0.198,0.214,0.0804347826087,0.016,0.198,0.214,0.0804347826087,0.016,0.198,0.214,0.0804347826087,0.016,0.198,0.214,0.0804347826087
34480000,103.312763124,143.880445114,83.028922129,0.682,0.1965,0.501,0.0185,0.186,0.2045,0.0967963386728,0.0185,0.186,0.2045,0.0967963386728,0.0185,0.186,0.2045,0.0967963386728,0.0185,0.186,0.2045,0.0967963386728,0.0185,0.186,0.2045,0.0967963386728,0.0185,0.186,0.2045,0.0967963386728
34480000,103.747274556,150.219528611,80.5111475293,0.788,0.1945,0.5895,0.0135,0.175,0.1885,0.0786980908584,0.0135,0.175,0.1885,0.0786980908584,0.0135,0.175,0.1885,0.0786980908584,0.0135,0.175,0.1885,0.0786980908584,0.0135,0.175,0.1885,0.0786980908584,0.0135,0.175,0.1885,0.0786980908584
34480000,103.830370624,150.370629155,80.5602413589,0.772,0.1945,0.577,0.0125,0.1875,0.2,0.0661643610013,0.0125,0.1875,0.2,0.0661643610013,0.0125,0.1875,0.2,0.0661643610013,0.0125,0.1875,0.2,0.0661643610013,0.0125,0.1875,0.2,0.0661643610013,0.0125,0.1875,0.2,0.0661643610013
34480000,104.026438695,150.267016204,80.9061499412,0.772,0.1995,0.577,0.015,0.1975,0.2125,0.0755208333333,0.015,0.1975,0.2125,0.0755208333333,0.015,0.1975,0.2125,0.0755208333333,0.015,0.1975,0.2125,0.0755208333333,0.015,0.1975,0.2125,0.0755208333333,0.015,0.1975,0.2125,0.0755208333333
34480000,105.346371684,150.355260133,82.8419274592,0.785,0.207,0.5795,0.011,0.1975,0.2085,0.055775462963,0.011,0.1975,0.2085,0.055775462963,0.011,0.1975,0.2085,0.055775462963,0.011,0.1975,0.2085,0.055775462963,0.011,0.1975,0.2085,0.055775462963,0.011,0.1975,0.2085,0.055775462963
34480000,105.567271564,150.318908608,83.1914530427,0.865,0.2255,0.57,0.022,0.221,0.243,0.10259433688,0.022,0.221,0.243,0.10259433688,0.022,0.221,0.243,0.10259433688,0.022,0.221,0.243,0.10259433688,0.022,0.221,0.243,0.10259433688,0.022,0.221,0.243,0.10259433688
34600000,95.1301358367,138.233050359,73.5786785756,0.789,0.182,0.602,0.042,0.178,0.22,0.235363142292,0.042,0.178,0.22,0.235363142292,0.042,0.178,0.22,0.235363142292,0.042,0.178,0.22,0.235363142292,0.026,0.166,0.192,0.14804256813,0.026,0.166,0.192,0.14804256813
34600000,95.1991333348,138.959980335,73.3187098344,0.788,0.182,0.6085,0.013,0.1665,0.1795,0.0772186147186,0.013,0.1665,0.1795,0.0772186147186,0.013,0.1665,0.1795,0.0772186147186,0.013,0.1665,0.1795,0.0772186147186,0.013,0.1665,0.1795,0.0772186147186,0.013,0.1665,0.1795,0.0772186147186
34600000,95.6475244791,140.150048183,73.3962626271,0.79,0.18,0.547,0.015,0.1755,0.1905,0.0856589968003,0.015,0.1755,0.1905,0.0856589968003,0.015,0.1755,0.1905,0.0856589968003,0.015,0.1755,0.1905,0.0856589968003,0.015,0.1755,0.1905,0.0856589968003,0.015,0.1755,0.1905,0.0856589968003
34600000,97.3160079893,140.130248498,75.9088877351,0.7415,0.1845,0.566,0.021,0.1785,0.1995,0.122141445511,0.021,0.1785,0.1995,0.122141445511,0.021,0.1785,0.1995,0.122141445511,0.021,0.1785,0.1995,0.122141445511,0.021,0.1785,0.1995,0.122141445511,0.021,0.1785,0.1995,0.122141445511
34600000,97.4007756857,140.692273902,75.7550265774,0.7735,0.1915,0.591,0.017,0.1805,0.1975,0.0948175465839,0.017,0.1805,0.1975,0.0948175465839,0.017,0.1805,0.1975,0.0948175465839,0.017,0.1805,0.1975,0.0948175465839,0.017,0.1805,0.1975,0.0948175465839,0.017,0.1805,0.1975,0.0948175465839
34600000,97.4570328891,141.527300426,75.4218991208,0.7405,0.2475,0.5245,0.0335,0.246,0.2795,0.120499518597,0.0335,0.246,0.2795,0.120499518597,0.0335,0.246,0.2795,0.120499518597,0.0335,0.246,0.2795,0.120499518597,0.0335,0.246,0.2795,0.120499518597,0.0335,0.246,0.2795,0.120499518597
34600000,97.4866304247,141.575288349,75.4423014624,0.763,0.188,0.5675,0.008,0.1875,0.1955,0.043766025641,0.008,0.1875,0.1955,0.043766025641,0.008,0.1875,0.1955,0.043766025641,0.008,0.1875,0.1955,0.043766025641,0.008,0.1875,0.1955,0.043766025641,0.008,0.1875,0.1955,0.043766025641
34600000,97.7902228098,142.023356806,75.6736558118,0.7605,0.187,0.5865,0.022,0.181,0.203,0.121541501976,0.022,0.181,0.203,0.121541501976,0.022,0.181,0.203,0.121541501976,0.022,0.181,0.203,0.121541501976,0.022,0.181,0.203,0.121541501976,0.022,0.181,0.203,0.121541501976
34600000,98.0657725765,142.810908121,75.6932048042,0.755,0.1805,0.5685,0.013,0.169,0.182,0.0772193576827,0.013,0.169,0.182,0.0772193576827,0.013,0.168,0.181,0.0779933514908,0.013,0.168,0.181,0.0779933514908,0.013,0.168,0.181,0.0779933514908,0.013,0.168,0.181,0.0779933514908
34600000,98.6238193122,143.570672706,76.1503926154,0.76,0.187,0.5765,0.0175,0.1805,0.198,0.0969473461321,0.0175,0.1805,0.198,0.0969473461321,0.0175,0.1805,0.198,0.0969473461321,0.0175,0.1805,0.198,0.0969473461321,0.0175,0.1805,0.198,0.0969473461321,0.0175,0.1805,0.198,0.0969473461321
34600000,98.8168690478,144.134655155,76.1579759941,0.765,0.186,0.5805,0.011,0.1825,0.1935,0.0614471579145,0.011,0.1825,0.1935,0.0614471579145,0.011,0.1825,0.1935,0.0614471579145,0.011,0.1825,0.1935,0.0614471579145,0.011,0.1825,0.1935,0.0614471579145,0.011,0.1825,0.1935,0.0614471579145
34600000,99.2695099104,144.458444138,76.6750427965,0.7585,0.1855,0.5735,0.023,0.1615,0.1845,0.145315348029,0.023,0.1615,0.1845,0.145315348029,0.023,0.1615,0.1845,0.145315348029,0.023,0.1615,0.1845,0.145315348029,0.023,0.1615,0.1845,0.145315348029,0.023,0.1615,0.1845,0.145315348029
34600000,99.5845743688,145.263044496,76.7453393051,0.755,0.19,0.5685,0.0165,0.1835,0.2,0.0900782867495,0.0165,0.1835,0.2,0.0900782867495,0.0165,0.1835,0.2,0.0900782867495,0.0165,0.1835,0.2,0.0900782867495,0.0165,0.1835,0.2,0.0900782867495,0.0165,0.1835,0.2,0.0900782867495
34600000,99.6795681342,144.80077468,77.118964861,0.7715,0.184,0.59,0.0215,0.181,0.2025,0.117712450593,0.0215,0.181,0.2025,0.117712450593,0.0215,0.181,0.2025,0.117712450593,0.0215,0.181,0.2025,0.117712450593,0.0215,0.181,0.2025,0.117712450593,0.0215,0.181,0.2025,0.117712450593
34600000,99.697013878,144.965279628,77.0628810032,0.7885,0.188,0.599,0.0135,0.1845,0.198,0.0733242753623,0.0135,0.1845,0.198,0.0733242753623,0.0135,0.1845,0.198,0.0733242753623,0.0135,0.1845,0.198,0.0733242753623,0.0135,0.184,0.1975,0.0738183465086,0.0135,0.184,0.1975,0.0738183465086
34600000,99.8006195552,144.514551357,77.443653654,0.7755,0.1865,0.5815,0.016,0.1665,0.1825,0.0956230590062,0.016,0.1665,0.1825,0.0956230590062,0.016,0.1665,0.1825,0.0956230590062,0.016,0.1665,0.1825,0.0956230590062,0.016,0.1665,0.1825,0.0956230590062,0.016,0.1665,0.1825,0.0956230590062
34600000,99.8989977,144.502855141,77.5970689795,0.7655,0.189,0.5785,0.0125,0.185,0.1975,0.0675,0.0125,0.185,0.1975,0.0675,0.0125,0.185,0.1975,0.0675,0.0125,0.185,0.1975,0.0675,0.0125,0.185,0.1975,0.0675,0.0125,0.185,0.1975,0.0675
34600000,100.435567655,146.690609211,77.3080468766,0.7535,0.1725,0.5715,0.02,0.161,0.181,0.122490886307,0.02,0.161,0.181,0.122490886307,0.02,0.161,0.181,0.122490886307,0.02,0.161,0.181,0.122490886307,0.02,0.161,0.181,0.122490886307,0.02,0.161,0.181,0.122490886307
34600000,100.47715172,145.815454602,77.8080002788,0.737,0.189,0.5525,0.0215,0.1885,0.21,0.114809782609,0.0215,0.1885,0.21,0.114809782609,0.0215,0.1885,0.21,0.114809782609,0.0215,0.1885,0.21,0.114809782609,0.0215,0.1885,0.21,0.114809782609,0.0215,0.1885,0.21,0.114809782609
34600000,100.613285247,147.501593291,77.1691312254,0.753,0.1745,0.574,0.0175,0.168,0.1855,0.106827200577,0.0175,0.168,0.1855,0.106827200577,0.0175,0.168,0.1855,0.106827200577,0.0175,0.168,0.1855,0.106827200577,0.0175,0.168,0.1855,0.106827200577,0.0175,0.168,0.1855,0.106827200577
34600000,100.617774275,146.314082447,77.7696201891,0.7195,0.178,0.5385,0.009,0.16,0.169,0.0598602484472,0.009,0.16,0.169,0.0598602484472,0.009,0.16,0.169,0.0598602484472,0.009,0.16,0.169,0.0598602484472,0.009,0.16,0.169,0.0598602484472,0.009,0.16,0.169,0.0598602484472
34600000,100.861250865,145.883419704,78.350166446,0.767,0.19,0.5665,0.0105,0.1895,0.2,0.0559375,0.0105,0.1895,0.2,0.0559375,0.0105,0.1895,0.2,0.0559375,0.0105,0.1895,0.2,0.0559375,0.0105,0.1895,0.2,0.0559375,0.0105,0.1895,0.2,0.0559375
34600000,101.255539391,146.837535271,78.4645414512,0.7345,0.189,0.549,0.025,0.179,0.204,0.141704310183,0.025,0.179,0.204,0.141704310183,0.025,0.179,0.204,0.141704310183,0.025,0.179,0.204,0.141704310183,0.025,0.179,0.204,0.141704310183,0.025,0.179,0.204,0.141704310183
34600000,101.41816995,146.294891885,78.9798089833,0.7515,0.242,0.554,0.018,0.241,0.259,0.0668889455565,0.018,0.241,0.259,0.0668889455565,0.018,0.241,0.259,0.0668889455565,0.018,0.241,0.259,0.0668889455565,0.018,0.241,0.259,0.0668889455565,0.018,0.241,0.259,0.0668889455565
34600000,101.509384237,146.62093254,78.953610085,0.757,0.1865,0.57,0.0135,0.1785,0.192,0.0772015575005,0.0135,0.1785,0.192,0.0772015575005,0.0135,0.1785,0.192,0.0772015575005,0.0135,0.1785,0.192,0.0772015575005,0.0135,0.1785,0.192,0.0772015575005,0.0135,0.1785,0.192,0.0772015575005
34600000,101.845917288,148.367304104,78.5852238794,0.7185,0.1765,0.5475,0.0245,0.1705,0.195,0.144204415436,0.0245,0.1705,0.195,0.144204415436,0.0245,0.1705,0.195,0.144204415436,0.0245,0.1705,0.195,0.144204415436,0.0245,0.1705,0.195,0.144204415436,0.0245,0.1705,0.195,0.144204415436
34600000,102.131383529,148.732979765,78.8305854119,0.7575,0.2145,0.5585,0.0085,0.196,0.2045,0.043291488604,0.0085,0.196,0.2045,0.043291488604,0.0085,0.196,0.2045,0.043291488604,0.0085,0.196,0.2045,0.043291488604,0.0085,0.196,0.2045,0.043291488604,0.0085,0.196,0.2045,0.043291488604
34600000,102.266926869,146.850165334,79.9753076363,0.729,0.178,0.5495,0.0095,0.175,0.1845,0.0544066440806,0.0095,0.175,0.1845,0.0544066440806,0.0095,0.175,0.1845,0.0544066440806,0.0095,0.175,0.1845,0.0544066440806,0.0095,0.175,0.1845,0.0544066440806,0.0095,0.175,0.1845,0.0544066440806
34600000,102.545210958,147.805619378,79.9150067485,0.75,0.1895,0.5625,0.015,0.1865,0.2015,0.0795969202899,0.009,0.1865,0.1955,0.0483469202899,0.009,0.1865,0.1955,0.0483469202899,0.009,0.1865,0.1955,0.0483469202899,0.009,0.1865,0.1955,0.0483469202899,0.009,0.1865,0.1955,0.0483469202899
34600000,102.651602111,148.117405821,79.9187002562,0.744,0.1875,0.5575,0.0115,0.175,0.1865,0.069018560895,0.0115,0.175,0.1865,0.069018560895,0.0115,0.175,0.1865,0.069018560895,0.0115,0.175,0.1865,0.069018560895,0.0115,0.175,0.1865,0.069018560895,0.0115,0.175,0.1865,0.069018560895
34600000,102.971338321,148.420137218,80.2469388723,0.706,0.1855,0.521,0.0115,0.1795,0.191,0.0659459040533,0.0115,0.1795,0.191,0.0659459040533,0.0115,0.1795,0.191,0.0659459040533,0.0115,0.1795,0.191,0.0659459040533,0.0115,0.1795,0.191,0.0659459040533,0.0115,0.1795,0.191,0.0659459040533
34600000,103.162929305,148.998801153,80.2449933807,0.728,0.172,0.5525,0.0165,0.162,0.1785,0.101495215311,0.0165,0.162,0.1785,0.101495215311,0.0165,0.162,0.1785,0.101495215311,0.0165,0.162,0.1785,0.101495215311,0.0165,0.162,0.1785,0.101495215311,0.0165,0.162,0.1785,0.101495215311
34600000,103.259128312,149.438191033,80.1695969512,0.7225,0.187,0.5445,0.0095,0.1855,0.195,0.0504027222777,0.0095,0.1855,0.195,0.0504027222777,0.0095,0.1855,0.195,0.0504027222777,0.0095,0.1855,0.195,0.0504027222777,0.0095,0.1855,0.195,0.0504027222777,0.0095,0.1855,0.195,0.0504027222777
34600000,103.296532655,149.073375017,80.4081114744,0.725,0.181,0.542,0.023,0.1805,0.2035,0.128108530962,0.023,0.1805,0.2035,0.128108530962,0.023,0.1805,0.2035,0.128108530962,0.023,0.1805,0.2035,0.128108530962,0.023,0.1805,0.2035,0.128108530962,0.023,0.1805,0.2035,0.128108530962
34600000,103.765136657,148.739167579,81.2781211967,0.7175,0.169,0.5355,0.0095,0.1635,0.173,0.0579645445135,0.0095,0.1635,0.173,0.0579645445135,0.0095,0.1635,0.173,0.0579645445135,0.0095,0.1635,0.173,0.0579645445135,0.0095,0.1635,0.173,0.0579645445135,0.0095,0.1635,0.173,0.0579645445135
34600000,104.1780582,149.839028359,81.3475731199,0.733,0.204,0.548,0.0085,0.1995,0.208,0.0428947185061,0.0085,0.1995,0.208,0.0428947185061,0.0085,0.1995,0.208,0.0428947185061,0.0085,0.1995,0.208,0.0428947185061,0.0085,0.1915,0.2,0.0444972826087,0.0085,0.1915,0.2,0.0444972826087
34600000,105.733459925,149.777592973,83.7113934011,0.7425,0.1965,0.5435,0.01,0.192,0.202,0.0526498682477,0.01,0.192,0.202,0.0526498682477,0.01,0.192,0.202,0.0526498682477,0.01,0.192,0.202,0.0526498682477,0.01,0.192,0.202,0.0526498682477,0.01,0.192,0.202,0.0526498682477
34640000,99.6574880044,143.800393329,77.5860353423,0.8115,0.193,0.619,0.02,0.1895,0.2095,0.102356719368,0.02,0.1895,0.2095,0.102356719368,0.02,0.1895,0.2095,0.102356719368,0.02,0.1895,0.2095,0.102356719368,0.02,0.1895,0.2095,0.102356719368,0.02,0.1895,0.2095,0.102356719368
34640000,101.238058595,146.416012669,78.6490815582,0.8015,0.19,0.6095,0.017,0.174,0.191,0.100415843215,0.017,0.174,0.191,0.100415843215,0.017,0.174,0.191,0.100415843215,0.017,0.174,0.191,0.100415843215,0.017,0.174,0.191,0.100415843215,0.017,0.174,0.191,0.100415843215
34640000,101.627689486,145.248705735,79.8171813619,0.8355,0.2055,0.633,0.009,0.199,0.208,0.046434699317,0.009,0.199,0.208,0.046434699317,0.009,0.199,0.208,0.046434699317,0.009,0.199,0.208,0.046434699317,0.009,0.199,0.208,0.046434699317,0.009,0.199,0.208,0.046434699317
34640000,101.959859308,143.247815595,81.3158811643,0.759,0.1885,0.585,0.0105,0.1865,0.197,0.0559902597403,0.0105,0.1865,0.197,0.0559902597403,0.0105,0.1865,0.197,0.0559902597403,0.0105,0.1865,0.197,0.0559902597403,0.0105,0.1865,0.197,0.0559902597403,0.0105,0.1865,0.197,0.0559902597403
34640000,103.213494063,141.026107467,84.3071873604,0.648,0.176,0.44,0.016,0.168,0.184,0.0952380952381,0.016,0.168,0.184,0.0952380952381,0.016,0.168,0.184,0.0952380952381,0.016,0.168,0.184,0.0952380952381,0.016,0.168,0.184,0.0952380952381,0.016,0.168,0.184,0.0952380952381
34640000,104.439925742,149.238877275,82.0404499754,0.7785,0.191,0.5895,0.0175,0.183,0.2005,0.0966614906832,0.0175,0.183,0.2005,0.0966614906832,0.0175,0.183,0.2005,0.0966614906832,0.0175,0.183,0.2005,0.0966614906832,0.0175,0.183,0.2005,0.0966614906832,0.0175,0.183,0.2005,0.0966614906832
34640000,104.841628482,149.496613782,82.5141358313,0.797,0.196,0.609,0.015,0.183,0.198,0.0828700828157,0.015,0.183,0.198,0.0828700828157,0.015,0.183,0.198,0.0828700828157,0.015,0.183,0.198,0.0828700828157,0.015,0.183,0.198,0.0828700828157,0.015,0.183,0.198,0.0828700828157
34640000,105.367211031,149.597711407,83.2519608432,0.8005,0.316,0.613,0.0225,0.312,0.3345,0.10137987013,0.0225,0.312,0.3345,0.10137987013,0.0225,0.312,0.3345,0.10137987013,0.0225,0.312,0.3345,0.10137987013,0.0225,0.312,0.3345,0.10137987013,0.0225,0.312,0.3345,0.10137987013
34640000,105.694994397,148.692243811,84.1963696908,0.798,0.186,0.6155,0.019,0.1675,0.1865,0.116567809574,0.019,0.1675,0.1865,0.116567809574,0.019,0.1675,0.1865,0.116567809574,0.019,0.1675,0.1865,0.116567809574,0.019,0.1675,0.1865,0.116567809574,0.019,0.1675,0.1865,0.116567809574
34640000,105.97214742,149.313493615,84.3014743221,0.8045,0.1865,0.612,0.02,0.182,0.202,0.10941266209,0.02,0.182,0.202,0.10941266209,0.02,0.182,0.202,0.10941266209,0.02,0.182,0.202,0.10941266209,0.02,0.182,0.202,0.10941266209,0.02,0.182,0.202,0.10941266209
34760000,99.135896822,139.425246692,78.9912218872,0.591,0.276,0.4525,0.015,0.274,0.289,0.0617753623188,0.015,0.274,0.289,0.0617753623188,0.015,0.274,0.289,0.0617753623188,0.015,0.274,0.289,0.0617753623188,0.015,0.274,0.289,0.0617753623188,0.015,0.274,0.289,0.0617753623188
34760000,100.134801254,148.42505875,75.9896725064,0.7655,0.1715,0.587,0.0205,0.163,0.1835,0.127083333333,0.0205,0.163,0.1835,0.127083333333,0.0205,0.163,0.1835,0.127083333333,0.0205,0.163,0.1835,0.127083333333,0.0205,0.163,0.1835,0.127083333333,0.0205,0.163,0.1835,0.127083333333
34760000,101.540728035,149.336725405,77.6427293502,0.737,0.1805,0.5545,0.016,0.1705,0.1865,0.094237012987,0.016,0.1705,0.1865,0.094237012987,0.016,0.1705,0.1865,0.094237012987,0.016,0.1705,0.1865,0.094237012987,0.016,0.1705,0.1865,0.094237012987,0.016,0.1705,0.1865,0.094237012987
34760000,101.626171752,147.966470892,78.456022182,0.6965,0.1645,0.5285,0.0185,0.149,0.1675,0.117087630507,0.0185,0.149,0.1675,0.117087630507,0.0185,0.149,0.1675,0.117087630507,0.0185,0.149,0.1675,0.117087630507,0.0185,0.149,0.1675,0.117087630507,0.0185,0.149,0.1675,0.117087630507
34760000,101.650469527,149.897098851,77.5271548644,0.747,0.18,0.565,0.024,0.1715,0.1955,0.143725296443,0.024,0.1715,0.1955,0.143725296443,0.024,0.1715,0.1955,0.143725296443,0.024,0.1715,0.1955,0.143725296443,0.024,0.1715,0.1955,0.143725296443,0.024,0.1715,0.1955,0.143725296443
34760000,102.121201374,149.929948048,78.2168280368,0.729,0.1745,0.541,0.013,0.1625,0.1755,0.0791522101265,0.013,0.1625,0.1755,0.0791522101265,0.013,0.1625,0.1755,0.0791522101265,0.013,0.1625,0.1755,0.0791522101265,0.013,0.1625,0.1755,0.0791522101265,0.013,0.1625,0.1755,0.0791522101265
34760000,102.526708079,150.034750811,78.7726867126,0.724,0.182,0.541,0.013,0.173,0.186,0.0746227344693,0.013,0.173,0.186,0.0746227344693,0.013,0.173,0.186,0.0746227344693,0.013,0.173,0.186,0.0746227344693,0.013,0.173,0.186,0.0746227344693,0.013,0.173,0.186,0.0746227344693
34760000,102.984928879,150.248608427,79.3530891045,0.7205,0.173,0.533,0.015,0.168,0.183,0.0893220369765,0.015,0.168,0.183,0.0893220369765,0.015,0.168,0.183,0.0893220369765,0.015,0.168,0.183,0.0893220369765,0.015,0.168,0.183,0.0893220369765,0.015,0.168,0.183,0.0893220369765
34760000,103.682162078,132.549489467,89.2484983838,0.734,0.17,0.451,0.0155,0.1685,0.184,0.0933471586575,0.0155,0.1685,0.184,0.0933471586575,0.0155,0.1685,0.184,0.0933471586575,0.0155,0.1685,0.184,0.0933471586575,0.0155,0.1685,0.184,0.0933471586575,0.0155,0.1685,0.184,0.0933471586575
34760000,103.903489646,150.095398429,80.8075352554,0.703,0.2255,0.505,0.013,0.2245,0.2375,0.0692275195565,0.013,0.2245,0.2375,0.0692275195565,0.013,0.2245,0.2375,0.0692275195565,0.013,0.2245,0.2375,0.0692275195565,0.013,0.2245,0.2375,0.0692275195565,0.013,0.2245,0.2375,0.0692275195565
34760000,104.909006139,149.712961393,82.5070285119,0.722,0.178,0.54,0.008,0.176,0.184,0.0455015998494,0.008,0.176,0.184,0.0455015998494,0.008,0.176,0.184,0.0455015998494,0.008,0.176,0.184,0.0455015998494,0.008,0.176,0.184,0.0455015998494,0.008,0.176,0.184,0.0455015998494
34760000,105.346290707,145.665475309,85.1866984066,0.7345,0.201,0.521,0.0175,0.1885,0.206,0.0944060559006,0.0175,0.1885,0.206,0.0944060559006,0.0175,0.1885,0.206,0.0944060559006,0.0175,0.1885,0.206,0.0944060559006,0.0175,0.1885,0.206,0.0944060559006,0.0175,0.1885,0.206,0.0944060559006
34760000,105.354435948,150.51159108,82.7758583819,0.708,0.179,0.5395,0.0215,0.169,0.1905,0.124408321941,0.0215,0.169,0.1905,0.124408321941,0.0215,0.169,0.1905,0.124408321941,0.0215,0.169,0.1905,0.124408321941,0.0215,0.169,0.1905,0.124408321941,0.0215,0.169,0.1905,0.124408321941
34760000,105.379078581,150.233852214,82.9516917648,0.7235,0.1755,0.5475,0.0115,0.1635,0.175,0.0696058327637,0.0115,0.1635,0.175,0.0696058327637,0.0115,0.1635,0.175,0.0696058327637,0.0115,0.1635,0.175,0.0696058327637,0.0115,0.1635,0.175,0.0696058327637,0.0115,0.1635,0.175,0.0696058327637
34760000,105.559994514,149.146413223,83.7667851601,0.7295,0.174,0.5495,0.017,0.167,0.184,0.101488095238,0.017,0.167,0.184,0.101488095238,0.017,0.167,0.184,0.101488095238,0.017,0.167,0.184,0.101488095238,0.017,0.167,0.184,0.101488095238,0.017,0.167,0.184,0.101488095238
34760000,105.651570585,144.939831353,86.0074402005,0.707,0.1935,0.509,0.013,0.1905,0.2035,0.0677099168947,0.013,0.1905,0.2035,0.0677099168947,0.013,0.1905,0.2035,0.0677099168947,0.013,0.1905,0.2035,0.0677099168947,0.013,0.1905,0.2035,0.0677099168947,0.013,0.1905,0.2035,0.0677099168947
34760000,105.78301063,146.513608294,85.4177117979,0.707,0.2175,0.5045,0.0095,0.2085,0.218,0.0450389588859,0.0095,0.2085,0.218,0.0450389588859,0.0095,0.2085,0.218,0.0450389588859,0.0095,0.2085,0.218,0.0450389588859,0.0095,0.2085,0.218,0.0450389588859,0.0095,0.2085,0.218,0.0450389588859
34760000,106.28197766,150.326446996,84.2597429915,0.6995,0.24,0.487,0.017,0.225,0.242,0.0834802058911,0.017,0.225,0.242,0.0834802058911,0.017,0.225,0.242,0.0834802058911,0.017,0.225,0.242,0.0834802058911,0.017,0.225,0.242,0.0834802058911,0.017,0.225,0.242,0.0834802058911
34760000,106.559310057,148.858460523,85.4097348236,0.699,0.1775,0.5275,0.028,0.168,0.196,0.164081027668,0.028,0.168,0.196,0.164081027668,0.028,0.1665,0.1945,0.165183968844,0.028,0.1665,0.1945,0.165183968844,0.028,0.1665,0.1945,0.165183968844,0.028,0.1665,0.1945,0.165183968844
34760000,106.659375106,145.617457204,87.1803340562,0.6835,0.2,0.485,0.0105,0.186,0.1965,0.0566304347826,0.0105,0.186,0.1965,0.0566304347826,0.0105,0.186,0.1965,0.0566304347826,0.0105,0.186,0.1965,0.0566304347826,0.0105,0.186,0.1965,0.0566304347826,0.0105,0.186,0.1965,0.0566304347826
34760000,107.241638317,148.585205542,86.5698547052,0.716,0.238,0.518,0.021,0.2325,0.2535,0.0938938492063,0.021,0.2325,0.2535,0.0938938492063,0.021,0.2325,0.2535,0.0938938492063,0.021,0.2325,0.2535,0.0938938492063,0.021,0.2325,0.2535,0.0938938492063,0.021,0.2325,0.2535,0.0938938492063
34760000,107.47318255,147.043015515,87.688266067,0.7,0.2,0.5085,0.0085,0.194,0.2025,0.043768115942,0.0085,0.194,0.2025,0.043768115942,0.0085,0.194,0.2025,0.043768115942,0.0085,0.194,0.2025,0.043768115942,0.0085,0.194,0.2025,0.043768115942,0.0085,0.194,0.2025,0.043768115942
34760000,107.658879187,150.334551824,86.3210428683,0.7105,0.178,0.5325,0.0135,0.174,0.1875,0.0784026373187,0.0135,0.174,0.1875,0.0784026373187,0.0135,0.174,0.1875,0.0784026373187,0.0135,0.174,0.1875,0.0784026373187,0.0135,0.174,0.1875,0.0784026373187,0.0135,0.174,0.1875,0.0784026373187
34760000,107.898623214,150.12822544,86.7838221016,0.763,0.1805,0.586,0.008,0.1735,0.1815,0.0461427159797,0.008,0.1735,0.1815,0.0461427159797,0.008,0.1735,0.1815,0.0461427159797,0.008,0.1735,0.1815,0.0461427159797,0.008,0.1735,0.1815,0.0461427159797,0.008,0.1735,0.1815,0.0461427159797
34760000,108.013321843,147.562153736,88.2389058959,0.7045,0.2985,0.478,0.013,0.2965,0.3095,0.0456191265186,0.013,0.2965,0.3095,0.0456191265186,0.013,0.2965,0.3095,0.0456191265186,0.013,0.2965,0.3095,0.0456191265186,0.013,0.2965,0.3095,0.0456191265186,0.013,0.2965,0.3095,0.0456191265186
34760000,108.090972939,150.045103019,87.1139078989,0.7255,0.1825,0.543,0.0115,0.1785,0.19,0.0633249223602,0.0115,0.1785,0.19,0.0633249223602,0.0115,0.1785,0.19,0.0633249223602,0.0115,0.1785,0.19,0.0633249223602,0.0115,0.1785,0.19,0.0633249223602,0.0115,0.1785,0.19,0.0633249223602
34760000,108.4230525,150.094368114,87.5873946926,0.7625,0.1835,0.5815,0.0135,0.1815,0.195,0.0742577169208,0.0135,0.1815,0.195,0.0742577169208,0.0135,0.1815,0.195,0.0742577169208,0.0135,0.1815,0.195,0.0742577169208,0.0135,0.1815,0.195,0.0742577169208,0.0135,0.1815,0.195,0.0742577169208
34760000,108.45051128,150.211508469,87.5700126858,0.738,0.1755,0.562,0.0245,0.169,0.1935,0.145021645022,0.0245,0.169,0.1935,0.145021645022,0.0245,0.169,0.1935,0.145021645022,0.0245,0.169,0.1935,0.145021645022,0.0245,0.169,0.1935,0.145021645022,0.0245,0.169,0.1935,0.145021645022
34760000,108.481901525,147.24910623,89.0982991727,0.7155,0.2035,0.522,0.01,0.1965,0.2065,0.0499178312629,0.01,0.1965,0.2065,0.0499178312629,0.01,0.1965,0.2065,0.0499178312629,0.01,0.1965,0.2065,0.0499178312629,0.01,0.1965,0.2065,0.0499178312629,0.01,0.1965,0.2065,0.0499178312629
34760000,108.514656556,150.164846023,87.6895618226,0.695,0.176,0.519,0.0395,0.1715,0.211,0.231466450216,0.0395,0.1715,0.211,0.231466450216,0.0395,0.1715,0.211,0.231466450216,0.0395,0.1715,0.211,0.231466450216,0.0395,0.1715,0.211,0.231466450216,0.0395,0.1715,0.211,0.231466450216
34760000,108.525595979,149.450372805,88.0632075656,0.7235,0.199,0.52,0.011,0.1955,0.2065,0.0559205840456,0.011,0.1955,0.2065,0.0559205840456,0.011,0.1955,0.2065,0.0559205840456,0.011,0.1955,0.2065,0.0559205840456,0.011,0.1955,0.2065,0.0559205840456,0.011,0.1955,0.2065,0.0559205840456
34760000,108.543323111,150.256350581,87.6868093768,0.6905,0.1735,0.5165,0.0145,0.165,0.1795,0.0854843073593,0.0145,0.165,0.1795,0.0854843073593,0.0145,0.165,0.1795,0.0854843073593,0.0145,0.165,0.1795,0.0854843073593,0.0145,0.165,0.1795,0.0854843073593,0.0145,0.165,0.1795,0.0854843073593
34760000,108.60532122,150.208309147,87.8038272569,0.7535,0.1795,0.575,0.0125,0.167,0.1795,0.0759785353535,0.0125,0.167,0.1795,0.0759785353535,0.0125,0.167,0.1795,0.0759785353535,0.0125,0.167,0.1795,0.0759785353535,0.0125,0.167,0.1795,0.0759785353535,0.0125,0.167,0.1795,0.0759785353535
34760000,108.855150115,150.648265405,87.9585924709,0.661,0.1675,0.495,0.014,0.162,0.176,0.0919075764277,0.014,0.162,0.176,0.0919075764277,0.014,0.162,0.176,0.0919075764277,0.014,0.162,0.176,0.0919075764277,0.014,0.162,0.176,0.0919075764277,0.014,0.162,0.176,0.0919075764277
34760000,108.910676349,150.203125385,88.2644518313,0.7615,0.177,0.5825,0.014,0.164,0.178,0.0871170948617,0.014,0.164,0.178,0.0871170948617,0.014,0.164,0.178,0.0871170948617,0.014,0.164,0.178,0.0871170948617,0.014,0.164,0.178,0.0871170948617,0.014,0.164,0.178,0.0871170948617
34760000,108.926715291,150.014007828,88.3830690225,0.721,0.251,0.53,0.0205,0.2465,0.267,0.102278387117,0.0205,0.2465,0.267,0.102278387117,0.0205,0.2465,0.267,0.102278387117,0.0205,0.2465,0.267,0.102278387117,0.0205,0.2465,0.267,0.102278387117,0.0205,0.2465,0.267,0.102278387117
34760000,109.138227417,149.215325714,89.0996782689,0.7495,0.1965,0.552,0.0175,0.182,0.1995,0.0958327526942,0.0175,0.182,0.1995,0.0958327526942,0.0175,0.182,0.1995,0.0958327526942,0.0175,0.182,0.1995,0.0958327526942,0.0175,0.182,0.1995,0.0958327526942,0.0175,0.182,0.1995,0.0958327526942
34760000,109.161949023,150.208438529,88.6387042696,0.7135,0.193,0.5445,0.008,0.1825,0.1905,0.0460573308271,0.008,0.1825,0.1905,0.0460573308271,0.008,0.1825,0.1905,0.0460573308271,0.008,0.1825,0.1905,0.0460573308271,0.008,0.1825,0.1905,0.0460573308271,0.008,0.1825,0.1905,0.0460573308271
34760000,109.229159979,149.062409206,89.3125353653,0.674,0.1615,0.4955,0.0105,0.152,0.1625,0.0676136363636,0.0105,0.152,0.1625,0.0676136363636,0.0105,0.152,0.1625,0.0676136363636,0.0105,0.152,0.1625,0.0676136363636,0.0105,0.152,0.1625,0.0676136363636,0.0105,0.152,0.1625,0.0676136363636
34760000,109.996838345,149.429883923,90.2803155564,0.6805,0.2195,0.4675,0.0105,0.209,0.2195,0.0497194501101,0.0105,0.209,0.2195,0.0497194501101,0.0105,0.209,0.2195,0.0497194501101,0.0105,0.209,0.2195,0.0497194501101,0.0105,0.205,0.2155,0.0506252472115,0.0105,0.205,0.2155,0.0506252472115
34760000,110.563412738,149.871478524,90.9093798449,0.704,0.1915,0.5095,0.0135,0.184,0.1975,0.0815546218487,0.0135,0.184,0.1975,0.0815546218487,0.0135,0.184,0.1975,0.0815546218487,0.0135,0.184,0.1975,0.0815546218487,0.0135,0.184,0.1975,0.0815546218487,0.0135,0.184,0.1975,0.0815546218487
34800000,103.443678558,147.711335784,81.3098499447,0.682,0.176,0.498,0.01,0.159,0.169,0.0628040890269,0.01,0.159,0.169,0.0628040890269,0.01,0.159,0.169,0.0628040890269,0.01,0.159,0.169,0.0628040890269,0.01,0.159,0.169,0.0628040890269,0.01,0.159,0.169,0.0628040890269
34800000,103.479159586,146.218490788,82.109493985,0.663,0.1845,0.466,0.01,0.168,0.178,0.0603707886317,0.01,0.168,0.178,0.0603707886317,0.01,0.168,0.178,0.0603707886317,0.01,0.168,0.178,0.0603707886317,0.01,0.168,0.178,0.0603707886317,0.01,0.168,0.178,0.0603707886317
34800000,104.623655208,145.745921772,84.0625219265,0.689,0.1975,0.491,0.0085,0.193,0.2015,0.0451611984507,0.0085,0.193,0.2015,0.0451611984507,0.0085,0.193,0.2015,0.0451611984507,0.0085,0.193,0.2015,0.0451611984507,0.0085,0.193,0.2015,0.0451611984507,0.0085,0.193,0.2015,0.0451611984507
34800000,105.036048624,149.599294487,82.7544256921,0.6885,0.1615,0.4985,0.012,0.134,0.146,0.0905270092227,0.012,0.134,0.146,0.0905270092227,0.012,0.134,0.146,0.0905270092227,0.012,0.134,0.146,0.0905270092227,0.012,0.134,0.146,0.0905270092227,0.012,0.134,0.146,0.0905270092227
34800000,105.365988429,146.068645688,85.0146597996,0.6615,0.1915,0.4655,0.0225,0.17,0.1925,0.15663243007,0.0225,0.17,0.1925,0.15663243007,0.0225,0.17,0.1925,0.15663243007,0.0225,0.17,0.1925,0.15663243007,0.0225,0.17,0.1925,0.15663243007,0.0225,0.17,0.1925,0.15663243007
34800000,106.259184073,148.989184718,84.8941837505,0.6735,0.211,0.377,0.0165,0.2055,0.222,0.0827959656085,0.0165,0.2055,0.222,0.0827959656085,0.0165,0.2055,0.222,0.0827959656085,0.0165,0.2055,0.222,0.0827959656085,0.0165,0.2055,0.222,0.0827959656085,0.0165,0.2055,0.222,0.0827959656085
34800000,106.86420445,148.990986023,85.8008136635,0.657,0.227,0.323,0.0185,0.216,0.2345,0.0916545049154,0.0185,0.216,0.2345,0.0916545049154,0.0185,0.216,0.2345,0.0916545049154,0.0185,0.216,0.2345,0.0916545049154,0.0185,0.216,0.2345,0.0916545049154,0.0185,0.216,0.2345,0.0916545049154
34800000,106.9368854,149.635029145,85.587813527,0.699,0.19,0.514,0.02,0.187,0.207,0.107401656315,0.02,0.186,0.206,0.108028222731,0.02,0.186,0.206,0.108028222731,0.02,0.186,0.206,0.108028222731,0.02,0.186,0.206,0.108028222731,0.02,0.186,0.206,0.108028222731
34800000,106.99564903,150.394354446,85.2962963225,0.658,0.2105,0.443,0.0125,0.208,0.2205,0.0623947811448,0.0125,0.208,0.2205,0.0623947811448,0.0125,0.208,0.2205,0.0623947811448,0.0125,0.208,0.2205,0.0623947811448,0.0125,0.208,0.2205,0.0623947811448,0.0125,0.208,0.2205,0.0623947811448
34800000,107.240249743,148.982109956,86.3693196361,0.665,0.199,0.4685,0.018,0.1975,0.2155,0.0895582376561,0.018,0.1975,0.2155,0.0895582376561,0.018,0.1975,0.2155,0.0895582376561,0.018,0.1975,0.2155,0.0895582376561,0.018,0.1975,0.2155,0.0895582376561,0.018,0.1975,0.2155,0.0895582376561
34800000,107.594931788,150.098236859,86.3432792521,0.657,0.203,0.455,0.0085,0.196,0.2045,0.0490997906079,0.0085,0.196,0.2045,0.0490997906079,0.0085,0.196,0.2045,0.0490997906079,0.0085,0.196,0.2045,0.0490997906079,0.0085,0.196,0.2045,0.0490997906079,0.0085,0.196,0.2045,0.0490997906079
34800000,108.392498311,148.487719044,88.3448879446,0.6505,0.201,0.4205,0.02,0.1985,0.2185,0.0994161333835,0.02,0.1985,0.2185,0.0994161333835,0.02,0.1985,0.2185,0.0994161333835,0.02,0.1985,0.2185,0.0994161333835,0.02,0.1985,0.2185,0.0994161333835,0.02,0.1985,0.2185,0.0994161333835
34800000,109.28583578,150.127291665,88.8651078375,0.651,0.254,0.4645,0.022,0.248,0.27,0.087202540107,0.022,0.248,0.27,0.087202540107,0.022,0.248,0.27,0.087202540107,0.022,0.248,0.27,0.087202540107,0.022,0.248,0.27,0.087202540107,0.022,0.248,0.27,0.087202540107
34840000,91.3772561651,129.047702909,72.5420327929,0.7,0.1725,0.5255,0.0135,0.169,0.1825,0.0795003607504,0.0135,0.169,0.1825,0.0795003607504,0.0135,0.169,0.1825,0.0795003607504,0.0135,0.169,0.1825,0.0795003607504,0.0135,0.169,0.1825,0.0795003607504,0.0135,0.169,0.1825,0.0795003607504
34840000,91.6467084016,130.794832788,72.0726462085,0.693,0.172,0.518,0.0175,0.171,0.1885,0.10229978355,0.0175,0.171,0.1885,0.10229978355,0.0175,0.171,0.1885,0.10229978355,0.0175,0.171,0.1885,0.10229978355,0.0175,0.171,0.1885,0.10229978355,0.0175,0.171,0.1885,0.10229978355
34840000,91.7125809158,129.499623345,72.8190597014,0.6975,0.172,0.5275,0.0165,0.1655,0.182,0.101510167464,0.0165,0.1655,0.182,0.101510167464,0.0165,0.1655,0.182,0.101510167464,0.0165,0.1655,0.182,0.101510167464,0.0165,0.1655,0.182,0.101510167464,0.0165,0.1655,0.182,0.101510167464
34840000,92.2337608241,125.451769828,75.6247563223,0.6935,0.173,0.458,0.0145,0.1725,0.187,0.0823687182383,0.0145,0.1725,0.187,0.0823687182383,0.0145,0.1725,0.187,0.0823687182383,0.0145,0.1725,0.187,0.0823687182383,0.0145,0.1725,0.187,0.0823687182383,0.0145,0.1725,0.187,0.0823687182383
34840000,92.241817117,129.846023009,73.4397141713,0.687,0.177,0.512,0.0115,0.173,0.1845,0.0666556460321,0.0115,0.173,0.1845,0.0666556460321,0.0115,0.173,0.1845,0.0666556460321,0.0115,0.173,0.1845,0.0666556460321,0.0115,0.173,0.1845,0.0666556460321,0.0115,0.173,0.1845,0.0666556460321
34840000,92.5417456894,132.399740978,72.6127480453,0.699,0.2015,0.5355,0.0165,0.1975,0.214,0.0954220779221,0.0165,0.1975,0.214,0.0954220779221,0.0165,0.1975,0.214,0.0954220779221,0.0165,0.1975,0.214,0.0954220779221,0.0165,0.1975,0.214,0.0954220779221,0.0165,0.1975,0.214,0.0954220779221
34840000,92.8307299732,130.69971556,73.8962371796,0.6885,0.178,0.511,0.017,0.1605,0.1775,0.106059182046,0.017,0.1605,0.1775,0.106059182046,0.017,0.1605,0.1775,0.106059182046,0.017,0.1605,0.1775,0.106059182046,0.013,0.1605,0.1735,0.0797433925723,0.013,0.1605,0.1735,0.0797433925723
34840000,92.9308239128,131.436303182,73.678084278,0.676,0.17,0.5075,0.01,0.161,0.171,0.0616567460317,0.01,0.161,0.171,0.0616567460317,0.01,0.161,0.171,0.0616567460317,0.01,0.161,0.171,0.0616567460317,0.01,0.161,0.171,0.0616567460317,0.01,0.161,0.171,0.0616567460317
34840000,93.0915659,131.122242757,74.0762274716,0.684,0.1745,0.507,0.019,0.1655,0.1845,0.11197319837,0.019,0.1655,0.1845,0.11197319837,0.019,0.1655,0.1845,0.11197319837,0.019,0.1655,0.1845,0.11197319837,0.019,0.1655,0.1845,0.11197319837,0.019,0.1655,0.1845,0.11197319837
34840000,93.3928748944,128.187388086,75.9956182986,0.659,0.186,0.481,0.0135,0.1745,0.188,0.077328332587,0.0135,0.1745,0.188,0.077328332587,0.0135,0.1745,0.188,0.077328332587,0.0135,0.1745,0.188,0.077328332587,0.0135,0.1745,0.188,0.077328332587,0.0135,0.1745,0.188,0.077328332587
34840000,93.4030971955,131.360454732,74.4244184273,0.672,0.3375,0.494,0.01,0.3275,0.3375,0.046095845253,0.01,0.3275,0.3375,0.046095845253,0.01,0.3275,0.3375,0.046095845253,0.01,0.3275,0.3375,0.046095845253,0.01,0.3275,0.3375,0.046095845253,0.01,0.3275,0.3375,0.046095845253
34840000,94.5112593243,132.844904491,75.3444367408,0.678,0.176,0.4975,0.009,0.171,0.18,0.0525027056277,0.009,0.171,0.18,0.0525027056277,0.009,0.171,0.18,0.0525027056277,0.009,0.171,0.18,0.0525027056277,0.009,0.171,0.18,0.0525027056277,0.009,0.171,0.18,0.0525027056277
34840000,94.717392683,132.109285273,76.0214463883,0.632,0.176,0.456,0.016,0.176,0.192,0.0909090909091,0.016,0.176,0.192,0.0909090909091,0.016,0.176,0.192,0.0909090909091,0.016,0.176,0.192,0.0909090909091,0.016,0.176,0.192,0.0909090909091,0.016,0.176,0.192,0.0909090909091
34840000,94.8069508287,132.962561395,75.7291455454,0.6715,0.1765,0.4955,0.02,0.168,0.188,0.115985275689,0.02,0.168,0.188,0.115985275689,0.02,0.168,0.188,0.115985275689,0.02,0.168,0.188,0.115985275689,0.02,0.168,0.188,0.115985275689,0.02,0.168,0.188,0.115985275689
34840000,94.9147930572,136.176777852,74.2838006597,0.682,0.175,0.513,0.012,0.166,0.178,0.0726347117794,0.012,0.166,0.178,0.0726347117794,0.012,0.166,0.178,0.0726347117794,0.012,0.166,0.178,0.0726347117794,0.012,0.166,0.178,0.0726347117794,0.012,0.166,0.178,0.0726347117794
34840000,94.9416069439,136.073774672,74.3755230799,0.6745,0.1665,0.5005,0.012,0.161,0.173,0.0742822966507,0.011,0.161,0.172,0.0686004784689,0.011,0.161,0.172,0.0686004784689,0.011,0.161,0.172,0.0686004784689,0.011,0.161,0.172,0.0686004784689,0.01,0.161,0.171,0.0620215311005
34840000,95.0097214427,136.396455575,74.3163543766,0.685,0.1675,0.512,0.011,0.1615,0.1725,0.0700980671375,0.011,0.1615,0.1725,0.0700980671375,0.011,0.1615,0.1725,0.0700980671375,0.011,0.1615,0.1725,0.0700980671375,0.011,0.1615,0.1725,0.0700980671375,0.011,0.1615,0.1725,0.0700980671375
34840000,95.1302843272,136.359849996,74.5155014927,0.6815,0.1715,0.5055,0.0105,0.1705,0.181,0.0619976943347,0.0105,0.1705,0.181,0.0619976943347,0.0105,0.1705,0.181,0.0619976943347,0.0105,0.1705,0.181,0.0619976943347,0.0105,0.1705,0.181,0.0619976943347,0.0105,0.1705,0.181,0.0619976943347
34840000,95.9236665102,137.649481041,75.0607592449,0.6695,0.1685,0.4975,0.013,0.1685,0.1815,0.0782314605684,0.013,0.1685,0.1815,0.0782314605684,0.013,0.1685,0.1815,0.0782314605684,0.013,0.1685,0.1815,0.0782314605684,0.013,0.1685,0.1815,0.0782314605684,0.013,0.1685,0.1815,0.0782314605684
34840000,96.7786380354,134.162977026,78.08646854,0.6365,0.177,0.4675,0.009,0.1745,0.1835,0.053171651956,0.009,0.1745,0.1835,0.053171651956,0.009,0.1745,0.1835,0.053171651956,0.009,0.1745,0.1835,0.053171651956,0.009,0.1745,0.1835,0.053171651956,0.009,0.1745,0.1835,0.053171651956
34840000,97.0046747818,139.557958934,75.7280327057,0.665,0.163,0.497,0.01,0.1575,0.1675,0.0632416742614,0.01,0.1575,0.1675,0.0632416742614,0.01,0.1575,0.1675,0.0632416742614,0.01,0.1575,0.1675,0.0632416742614,0.01,0.1575,0.1675,0.0632416742614,0.01,0.1575,0.1675,0.0632416742614
34840000,97.0796264995,139.889238009,75.6748207445,0.666,0.172,0.491,0.014,0.1645,0.1785,0.0839420995671,0.014,0.1645,0.1785,0.0839420995671,0.014,0.1645,0.1785,0.0839420995671,0.014,0.1645,0.1785,0.0839420995671,0.014,0.1645,0.1785,0.0839420995671,0.014,0.1645,0.1785,0.0839420995671
34840000,97.3001373123,140.482774085,75.7088189258,0.7005,0.1765,0.5205,0.013,0.172,0.185,0.0741806653491,0.013,0.172,0.185,0.0741806653491,0.013,0.172,0.185,0.0741806653491,0.013,0.172,0.185,0.0741806653491,0.013,0.172,0.185,0.0741806653491,0.013,0.172,0.185,0.0741806653491
34840000,97.3510621094,135.633974674,78.2096058271,0.666,0.2265,0.49,0.0105,0.2195,0.23,0.0536739381974,0.0105,0.2195,0.23,0.0536739381974,0.0105,0.2195,0.23,0.0536739381974,0.0105,0.2195,0.23,0.0536739381974,0.0105,0.2195,0.23,0.0536739381974,0.0105,0.2195,0.23,0.0536739381974
34840000,98.2876168237,140.869794457,76.9965280068,0.675,0.1755,0.4995,0.0155,0.1695,0.185,0.0966606858054,0.0155,0.1695,0.185,0.0966606858054,0.0155,0.1695,0.185,0.0966606858054,0.0155,0.1695,0.185,0.0966606858054,0.0155,0.1695,0.185,0.0966606858054,0.0155,0.1695,0.185,0.0966606858054
34840000,98.9718155956,141.827853102,77.5437968422,0.66,0.1755,0.4865,0.026,0.175,0.201,0.148538961039,0.026,0.175,0.201,0.148538961039,0.026,0.175,0.201,0.148538961039,0.026,0.175,0.201,0.148538961039,0.026,0.175,0.201,0.148538961039,0.026,0.175,0.201,0.148538961039
34840000,99.0694600408,136.839588864,80.1843956293,0.667,0.2495,0.4525,0.0135,0.242,0.2555,0.0603914503371,0.0135,0.242,0.2555,0.0603914503371,0.0135,0.242,0.2555,0.0603914503371,0.0135,0.242,0.2555,0.0603914503371,0.0135,0.242,0.2555,0.0603914503371,0.0135,0.242,0.2555,0.0603914503371
34840000,99.8086271211,144.479513246,77.4731840586,0.673,0.1625,0.5085,0.0285,0.161,0.1895,0.177827380952,0.0285,0.161,0.1895,0.177827380952,0.0285,0.161,0.1895,0.177827380952,0.0285,0.161,0.1895,0.177827380952,0.0285,0.161,0.1895,0.177827380952,0.0285,0.161,0.1895,0.177827380952
34840000,100.150536876,143.05649651,78.6975570582,0.661,0.1765,0.492,0.014,0.165,0.179,0.0855113636364,0.014,0.165,0.179,0.0855113636364,0.014,0.165,0.179,0.0855113636364,0.014,0.165,0.179,0.0855113636364,0.014,0.165,0.179,0.0855113636364,0.014,0.165,0.179,0.0855113636364
34840000,100.320967024,145.2777789,77.8425610862,0.676,0.171,0.5065,0.0155,0.165,0.1805,0.0939614661654,0.0155,0.165,0.1805,0.0939614661654,0.0155,0.165,0.1805,0.0939614661654,0.0155,0.161,0.1765,0.0963424185464,0.0155,0.161,0.1765,0.0963424185464,0.0155,0.161,0.1765,0.0963424185464
34840000,100.402322965,143.853819581,78.6765746574,0.687,0.192,0.4425,0.016,0.1735,0.1895,0.0982405577514,0.016,0.1735,0.1895,0.0982405577514,0.016,0.1675,0.1835,0.107064087163,0.016,0.1675,0.1835,0.107064087163,0.015,0.1675,0.1825,0.101629304554,0.015,0.1675,0.1825,0.101629304554
34840000,100.638062823,144.23643319,78.8388776397,0.666,0.176,0.495,0.035,0.153,0.188,0.236054150528,0.035,0.153,0.188,0.236054150528,0.035,0.153,0.188,0.236054150528,0.035,0.153,0.188,0.236054150528,0.035,0.153,0.188,0.236054150528,0.035,0.153,0.188,0.236054150528
34840000,100.740927748,145.21845372,78.502164762,0.6815,0.171,0.5115,0.014,0.1665,0.1805,0.0853148496241,0.014,0.1665,0.1805,0.0853148496241,0.014,0.1665,0.1805,0.0853148496241,0.014,0.1665,0.1805,0.0853148496241,0.014,0.1665,0.1805,0.0853148496241,0.014,0.1665,0.1805,0.0853148496241
34840000,101.021373428,146.711434156,78.1763430637,0.6775,0.1705,0.51,0.0115,0.1655,0.177,0.0691558441558,0.0115,0.1645,0.176,0.0705447330447,0.0115,0.1645,0.176,0.0705447330447,0.0115,0.1645,0.176,0.0705447330447,0.0115,0.1645,0.176,0.0705447330447,0.0115,0.1645,0.176,0.0705447330447
34840000,101.063433683,145.362649633,78.9138257077,0.654,0.1645,0.4895,0.0105,0.164,0.1745,0.0652882205514,0.0105,0.164,0.1745,0.0652882205514,0.0105,0.164,0.1745,0.0652882205514,0.0105,0.164,0.1745,0.0652882205514,0.0105,0.164,0.1745,0.0652882205514,0.0105,0.164,0.1745,0.0652882205514
34840000,101.106585319,144.202753643,79.5585011561,0.657,0.186,0.477,0.028,0.185,0.213,0.156787743506,0.028,0.185,0.213,0.156787743506,0.028,0.185,0.213,0.156787743506,0.028,0.185,0.213,0.156787743506,0.028,0.185,0.213,0.156787743506,0.028,0.185,0.213,0.156787743506
34840000,101.163296172,146.214496168,78.6376961733,0.6675,0.1735,0.499,0.024,0.165,0.189,0.142224880383,0.024,0.165,0.189,0.142224880383,0.024,0.165,0.189,0.142224880383,0.024,0.165,0.189,0.142224880383,0.024,0.165,0.189,0.142224880383,0.024,0.165,0.189,0.142224880383
34840000,101.402668681,144.973216681,79.6173946815,0.685,0.183,0.5015,0.013,0.1705,0.1835,0.0780738283456,0.013,0.1705,0.1835,0.0780738283456,0.013,0.1705,0.1835,0.0780738283456,0.013,0.1705,0.1835,0.0780738283456,0.013,0.1705,0.1835,0.0780738283456,0.013,0.1705,0.1835,0.0780738283456
34840000,101.582746294,145.229387649,79.7594256171,0.654,0.162,0.4905,0.01,0.1215,0.1315,0.0813922443978,0.01,0.1215,0.1315,0.0813922443978,0.01,0.1215,0.1315,0.0813922443978,0.01,0.1215,0.1315,0.0813922443978,0.01,0.1215,0.1315,0.0813922443978,0.01,0.1215,0.1315,0.0813922443978
34840000,102.017342789,147.364600239,79.343714064,0.6695,0.167,0.501,0.0135,0.1635,0.177,0.0793348861284,0.0135,0.1635,0.177,0.0793348861284,0.0135,0.1635,0.177,0.0793348861284,0.0135,0.1635,0.177,0.0793348861284,0.0135,0.1635,0.177,0.0793348861284,0.0135,0.1635,0.177,0.0793348861284
34840000,102.082932702,146.113814431,80.0674918379,0.6535,0.1795,0.4165,0.029,0.169,0.198,0.174085968379,0.029,0.169,0.198,0.174085968379,0.029,0.169,0.198,0.174085968379,0.029,0.169,0.198,0.174085968379,0.029,0.169,0.198,0.174085968379,0.0275,0.169,0.1965,0.165563241107
34840000,102.526187602,148.493237216,79.5426627946,0.6715,0.233,0.5045,0.0285,0.2325,0.261,0.107772098397,0.0285,0.2325,0.261,0.107772098397,0.0285,0.2325,0.261,0.107772098397,0.0285,0.2325,0.261,0.107772098397,0.0285,0.2325,0.261,0.107772098397,0.0285,0.2325,0.261,0.107772098397
34840000,102.651500076,146.851327676,80.5515862764,0.63,0.18,0.4625,0.0335,0.172,0.2055,0.224680154831,0.0335,0.172,0.2055,0.224680154831,0.0335,0.172,0.2055,0.224680154831,0.0335,0.172,0.2055,0.224680154831,0.0335,0.172,0.2055,0.224680154831,0.0335,0.172,0.2055,0.224680154831
34840000,103.087845834,148.902019683,80.1807589099,0.5575,0.1655,0.421,0.009,0.1625,0.1715,0.0553571428571,0.009,0.1625,0.1715,0.0553571428571,0.009,0.1625,0.1715,0.0553571428571,0.009,0.1625,0.1715,0.0553571428571,0.009,0.1625,0.1715,0.0553571428571,0.009,0.1625,0.1715,0.0553571428571
34840000,103.246187488,148.653411519,80.5425754728,0.6425,0.1625,0.485,0.0185,0.1575,0.176,0.123588990776,0.0185,0.1575,0.176,0.123588990776,0.0185,0.1575,0.176,0.123588990776,0.0185,0.1575,0.176,0.123588990776,0.0185,0.1575,0.176,0.123588990776,0.0185,0.1575,0.176,0.123588990776
34840000,103.680287367,149.249463263,80.8956994188,0.647,0.168,0.479,0.0135,0.1575,0.171,0.0859283625731,0.0135,0.1575,0.171,0.0859283625731,0.0135,0.1575,0.171,0.0859283625731,0.0135,0.1575,0.171,0.0859283625731,0.0135,0.1575,0.171,0.0859283625731,0.0135,0.1575,0.171,0.0859283625731
34920000,83.9654435391,97.2951536078,77.3005885048,0.7825,0.1805,0.604,0.0095,0.1595,0.169,0.0587627356435,0.0095,0.1595,0.169,0.0587627356435,0.0095,0.1595,0.169,0.0587627356435,0.0095,0.1595,0.169,0.0587627356435,0.0095,0.1595,0.169,0.0587627356435,0.0095,0.1595,0.169,0.0587627356435
34920000,84.3355286524,95.7377303628,78.6344277972,0.751,0.175,0.573,0.023,0.1725,0.1955,0.133403110048,0.023,0.1725,0.1955,0.133403110048,0.023,0.1725,0.1955,0.133403110048,0.023,0.1725,0.1955,0.133403110048,0.023,0.1725,0.1955,0.133403110048,0.023,0.1725,0.1955,0.133403110048
34920000,86.3032258481,98.1146746746,80.3975014348,0.766,0.1695,0.598,0.013,0.158,0.171,0.0831845238095,0.013,0.154,0.167,0.0883928571429,0.013,0.154,0.167,0.0883928571429,0.013,0.154,0.167,0.0883928571429,0.013,0.154,0.167,0.0883928571429,0.013,0.154,0.167,0.0883928571429
34920000,87.5519063543,99.5739293173,81.5408948728,0.7465,0.1685,0.582,0.012,0.1685,0.1805,0.0702516233766,0.012,0.1675,0.1795,0.070580570745,0.012,0.1675,0.1795,0.070580570745,0.012,0.1675,0.1795,0.070580570745,0.012,0.1675,0.1795,0.070580570745,0.012,0.1675,0.1795,0.070580570745
34920000,88.4255878978,100.713222334,82.2817706797,0.7595,0.168,0.5975,0.0165,0.154,0.1705,0.107219516595,0.0165,0.154,0.1705,0.107219516595,0.0165,0.154,0.1705,0.107219516595,0.0165,0.154,0.1705,0.107219516595,0.0165,0.154,0.1705,0.107219516595,0.0165,0.154,0.1705,0.107219516595
34920000,89.6697518673,100.159323605,84.4249659985,0.7455,0.164,0.5785,0.0165,0.147,0.1635,0.107889208315,0.0165,0.147,0.1635,0.107889208315,0.0165,0.147,0.1635,0.107889208315,0.0165,0.147,0.1635,0.107889208315,0.0165,0.147,0.1635,0.107889208315,0.0165,0.1455,0.162,0.108505984631
34920000,90.1918141801,100.278605441,85.1484185495,0.734,0.167,0.564,0.01,0.155,0.165,0.0630968296409,0.01,0.155,0.165,0.0630968296409,0.01,0.155,0.165,0.0630968296409,0.01,0.155,0.165,0.0630968296409,0.01,0.155,0.165,0.0630968296409,0.01,0.155,0.165,0.0630968296409
34920000,90.7157712726,102.496545573,84.8253841225,0.7475,0.164,0.5775,0.01,0.142,0.152,0.0709325396825,0.01,0.142,0.152,0.0709325396825,0.01,0.142,0.152,0.0709325396825,0.01,0.142,0.152,0.0709325396825,0.01,0.142,0.152,0.0709325396825,0.01,0.142,0.152,0.0709325396825
34920000,91.501805728,103.313261798,85.596077693,0.751,0.163,0.581,0.031,0.16,0.191,0.193483709273,0.031,0.16,0.191,0.193483709273,0.031,0.16,0.191,0.193483709273,0.031,0.159,0.19,0.193849206349,0.031,0.159,0.19,0.193849206349,0.031,0.159,0.19,0.193849206349
34920000,92.217570599,104.417408318,86.1176517398,0.7575,0.1705,0.589,0.014,0.1705,0.1845,0.0821158008658,0.014,0.1705,0.1845,0.0821158008658,0.014,0.1705,0.1845,0.0821158008658,0.014,0.1705,0.1845,0.0821158008658,0.014,0.1705,0.1845,0.0821158008658,0.014,0.1705,0.1845,0.0821158008658
34920000,95.5878855127,108.370148322,89.1967541082,0.7435,0.2495,0.5815,0.011,0.2365,0.2475,0.0615969660222,0.011,0.2365,0.2475,0.0615969660222,0.011,0.2365,0.2475,0.0615969660222,0.011,0.2365,0.2475,0.0615969660222,0.011,0.2365,0.2475,0.0615969660222,0.011,0.2365,0.2475,0.0615969660222
34960000,89.1011519918,106.677155151,80.313150412,0.746,0.1805,0.572,0.0225,0.1795,0.202,0.124913537549,0.0225,0.1795,0.202,0.124913537549,0.0225,0.1795,0.202,0.124913537549,0.0225,0.1795,0.202,0.124913537549,0.0225,0.1795,0.202,0.124913537549,0.0225,0.1795,0.202,0.124913537549
34960000,89.6349863964,106.274770099,81.3150945449,0.7325,0.183,0.5505,0.011,0.165,0.176,0.0663352272727,0.011,0.165,0.176,0.0663352272727,0.011,0.165,0.176,0.0663352272727,0.011,0.165,0.176,0.0663352272727,0.01,0.165,0.175,0.0611268939394,0.01,0.165,0.175,0.0611268939394
34960000,90.5752994531,106.712281334,82.5068085129,0.738,0.178,0.561,0.009,0.164,0.173,0.0547989910547,0.009,0.164,0.173,0.0547989910547,0.009,0.164,0.173,0.0547989910547,0.009,0.164,0.173,0.0547989910547,0.009,0.164,0.173,0.0547989910547,0.009,0.164,0.173,0.0547989910547
34960000,90.6015586758,110.775547312,80.5145643577,0.757,0.208,0.5575,0.015,0.2035,0.2185,0.0770097644061,0.015,0.2035,0.2185,0.0770097644061,0.015,0.2035,0.2185,0.0770097644061,0.015,0.2035,0.2185,0.0770097644061,0.015,0.2035,0.2185,0.0770097644061,0.015,0.2035,0.2185,0.0770097644061
34960000,90.7592927059,106.667596434,82.8051408419,0.534,0.186,0.395,0.023,0.1735,0.1965,0.132183441558,0.023,0.1735,0.1965,0.132183441558,0.023,0.1735,0.1965,0.132183441558,0.023,0.1735,0.1965,0.132183441558,0.023,0.1735,0.1965,0.132183441558,0.023,0.1735,0.1965,0.132183441558
34960000,92.8600709407,108.874504943,84.8528539394,0.752,0.202,0.55,0.016,0.194,0.21,0.0848890692641,0.016,0.194,0.21,0.0848890692641,0.016,0.194,0.21,0.0848890692641,0.016,0.194,0.21,0.0848890692641,0.016,0.194,0.21,0.0848890692641,0.016,0.194,0.21,0.0848890692641
34960000,93.005179953,110.544759281,84.2353902892,0.7555,0.17,0.581,0.0175,0.1695,0.187,0.103625541126,0.0175,0.1695,0.187,0.103625541126,0.0175,0.1695,0.187,0.103625541126,0.0175,0.1695,0.187,0.103625541126,0.0175,0.1695,0.187,0.103625541126,0.0175,0.1695,0.187,0.103625541126
34960000,93.3409529586,111.825645755,84.0986065603,0.737,0.178,0.561,0.0135,0.1715,0.185,0.0778153387421,0.0135,0.1715,0.185,0.0778153387421,0.0135,0.1715,0.185,0.0778153387421,0.0135,0.1715,0.185,0.0778153387421,0.0135,0.1715,0.185,0.0778153387421,0.0135,0.1715,0.185,0.0778153387421
34960000,93.3778669246,109.600750439,85.2664251674,0.746,0.176,0.569,0.01,0.1595,0.1695,0.0621392496392,0.01,0.1595,0.1695,0.0621392496392,0.01,0.1595,0.1695,0.0621392496392,0.01,0.1595,0.1695,0.0621392496392,0.01,0.1595,0.1695,0.0621392496392,0.01,0.1595,0.1695,0.0621392496392
34960000,93.526714714,112.054294943,84.2629245997,0.766,0.181,0.584,0.0145,0.176,0.1905,0.0820511010728,0.0145,0.176,0.1905,0.0820511010728,0.0145,0.176,0.1905,0.0820511010728,0.0145,0.176,0.1905,0.0820511010728,0.0145,0.176,0.1905,0.0820511010728,0.0145,0.176,0.1905,0.0820511010728
34960000,94.374028362,114.478109263,84.3219879113,0.7345,0.2295,0.5335,0.009,0.222,0.231,0.0460191981931,0.009,0.222,0.231,0.0460191981931,0.009,0.222,0.231,0.0460191981931,0.009,0.222,0.231,0.0460191981931,0.009,0.222,0.231,0.0460191981931,0.009,0.222,0.231,0.0460191981931
34960000,95.400553062,115.05819227,85.5717334579,0.7405,0.177,0.482,0.0145,0.1765,0.191,0.082886316582,0.0145,0.1765,0.191,0.082886316582,0.0145,0.1765,0.191,0.082886316582,0.0145,0.1765,0.191,0.082886316582,0.0145,0.1765,0.191,0.082886316582,0.0125,0.1765,0.189,0.0709815546772
34960000,96.0269897799,109.951337109,89.0648161155,0.7435,0.1745,0.556,0.0095,0.1535,0.163,0.0611077884104,0.0095,0.1535,0.163,0.0611077884104,0.0095,0.1535,0.163,0.0611077884104,0.0095,0.1535,0.163,0.0611077884104,0.0095,0.1515,0.161,0.0619247818745,0.0095,0.1515,0.161,0.0619247818745
34960000,96.3515503033,116.433262948,86.3106939808,0.731,0.183,0.5465,0.021,0.171,0.192,0.120875697767,0.021,0.171,0.192,0.120875697767,0.021,0.171,0.192,0.120875697767,0.021,0.171,0.192,0.120875697767,0.021,0.171,0.192,0.120875697767,0.021,0.171,0.192,0.120875697767
34960000,98.3799303799,118.911739648,88.1140257457,0.721,0.1845,0.5455,0.009,0.1735,0.1825,0.0529287439614,0.009,0.173,0.182,0.0530522617479,0.009,0.173,0.182,0.0530522617479,0.009,0.173,0.182,0.0530522617479,0.009,0.173,0.182,0.0530522617479,0.009,0.173,0.182,0.0530522617479
34960000,100.723617444,120.019433312,91.07570951,0.716,0.1695,0.539,0.0165,0.1635,0.18,0.10128968254,0.0165,0.1635,0.18,0.10128968254,0.0165,0.1635,0.18,0.10128968254,0.0165,0.1635,0.18,0.10128968254,0.0165,0.1635,0.18,0.10128968254,0.0165,0.1635,0.18,0.10128968254
35000000,98.6087785682,122.743675647,86.5413300291,0.682,0.1625,0.513,0.0165,0.159,0.1755,0.101138262322,0.0165,0.159,0.1755,0.101138262322,0.0165,0.159,0.1755,0.101138262322,0.0165,0.159,0.1755,0.101138262322,0.0165,0.159,0.1755,0.101138262322,0.0165,0.159,0.1755,0.101138262322
35000000,102.687961654,124.423382005,91.8202514794,0.6665,0.171,0.499,0.0175,0.167,0.1845,0.102840909091,0.0175,0.167,0.1845,0.102840909091,0.0175,0.167,0.1845,0.102840909091,0.0175,0.167,0.1845,0.102840909091,0.0175,0.167,0.1845,0.102840909091,0.0175,0.167,0.1845,0.102840909091
35000000,105.645518555,128.381408838,94.2775734133,0.6705,0.1685,0.503,0.0145,0.1595,0.174,0.0916623946229,0.0145,0.1595,0.174,0.0916623946229,0.0145,0.1595,0.174,0.0916623946229,0.0145,0.1595,0.174,0.0916623946229,0.0145,0.1595,0.174,0.0916623946229,0.0145,0.1595,0.174,0.0916623946229
35000000,106.893316163,122.758706255,98.9606211167,0.7085,0.1735,0.5085,0.016,0.163,0.179,0.0982683982684,0.016,0.163,0.179,0.0982683982684,0.016,0.163,0.179,0.0982683982684,0.016,0.163,0.179,0.0982683982684,0.016,0.163,0.179,0.0982683982684,0.016,0.163,0.179,0.0982683982684
35000000,107.57362304,131.358995507,95.680936807,0.676,0.172,0.474,0.02,0.158,0.178,0.125125313283,0.02,0.158,0.178,0.125125313283,0.02,0.158,0.178,0.125125313283,0.02,0.158,0.178,0.125125313283,0.02,0.158,0.178,0.125125313283,0.02,0.158,0.178,0.125125313283
35040000,88.3504136585,131.506663465,66.772288755,0.724,0.372,0.554,0.024,0.362,0.386,0.0697668083252,0.024,0.362,0.386,0.0697668083252,0.024,0.362,0.386,0.0697668083252,0.024,0.362,0.386,0.0697668083252,0.024,0.362,0.386,0.0697668083252,0.024,0.362,0.386,0.0697668083252
35080000,87.241359516,131.626143219,65.0489676646,0.722,0.1925,0.5365,0.01,0.1845,0.1945,0.0551037549407,0.01,0.1845,0.1945,0.0551037549407,0.01,0.1845,0.1945,0.0551037549407,0.01,0.1845,0.1945,0.0551037549407,0.01,0.1845,0.1945,0.0551037549407,0.01,0.1845,0.1945,0.0551037549407
35080000,88.07357955,136.946030245,63.6373542025,0.791,0.314,0.5375,0.011,0.313,0.324,0.04548834584,0.011,0.313,0.324,0.04548834584,0.011,0.313,0.324,0.04548834584,0.011,0.313,0.324,0.04548834584,0.011,0.313,0.324,0.04548834584,0.011,0.313,0.324,0.04548834584
35080000,90.8828281566,140.55956133,66.04446157,0.765,0.1945,0.5625,0.023,0.1925,0.2155,0.122921195652,0.019,0.1925,0.2115,0.101182065217,0.019,0.1925,0.2115,0.101182065217,0.019,0.1925,0.2115,0.101182065217,0.019,0.1925,0.2115,0.101182065217,0.019,0.1925,0.2115,0.101182065217
35120000,85.4136656827,132.910474827,61.6652611106,0.784,0.194,0.5915,0.018,0.184,0.202,0.0974555335968,0.018,0.184,0.202,0.0974555335968,0.018,0.184,0.202,0.0974555335968,0.018,0.184,0.202,0.0974555335968,0.018,0.184,0.202,0.0974555335968,0.018,0.184,0.202,0.0974555335968
35120000,85.74984649,133.164963614,62.0422879279,0.784,0.1905,0.5905,0.0115,0.1745,0.186,0.0663438735178,0.0115,0.1745,0.186,0.0663438735178,0.0115,0.1745,0.186,0.0663438735178,0.0115,0.1745,0.186,0.0663438735178,0.0115,0.1745,0.186,0.0663438735178,0.0115,0.1745,0.186,0.0663438735178
35120000,85.879534242,134.047669635,61.7954665458,0.783,0.1925,0.5945,0.013,0.1865,0.1995,0.0689834486166,0.013,0.1865,0.1995,0.0689834486166,0.013,0.1865,0.1995,0.0689834486166,0.013,0.1865,0.1995,0.0689834486166,0.013,0.1865,0.1995,0.0689834486166,0.013,0.1865,0.1995,0.0689834486166
35120000,86.4673059442,134.460675872,62.4706209802,0.8085,0.1985,0.6095,0.022,0.197,0.219,0.111702898551,0.022,0.197,0.219,0.111702898551,0.022,0.197,0.219,0.111702898551,0.022,0.197,0.219,0.111702898551,0.022,0.197,0.219,0.111702898551,0.022,0.197,0.219,0.111702898551
35120000,87.0703364165,135.644361547,62.7833238513,0.7775,0.1935,0.5875,0.016,0.1935,0.2095,0.0831476449275,0.016,0.1935,0.2095,0.0831476449275,0.016,0.1935,0.2095,0.0831476449275,0.016,0.1935,0.2095,0.0831476449275,0.016,0.1935,0.2095,0.0831476449275,0.016,0.1935,0.2095,0.0831476449275
35120000,87.076569409,134.479955769,63.3748762293,0.7775,0.198,0.583,0.014,0.1895,0.2035,0.0744696969697,0.014,0.1895,0.2035,0.0744696969697,0.014,0.1895,0.2035,0.0744696969697,0.014,0.1895,0.2035,0.0744696969697,0.014,0.1895,0.2035,0.0744696969697,0.014,0.1895,0.2035,0.0744696969697
35120000,87.9834025107,135.773695646,64.088255943,0.771,0.1965,0.5735,0.034,0.1925,0.2265,0.176497447299,0.034,0.1925,0.2265,0.176497447299,0.034,0.1925,0.2265,0.176497447299,0.034,0.1925,0.2265,0.176497447299,0.034,0.1925,0.2265,0.176497447299,0.034,0.1915,0.2255,0.176714838603
35120000,88.4857700665,136.845686542,64.3058118288,0.769,0.1905,0.584,0.0115,0.1845,0.196,0.0629401350461,0.0115,0.1845,0.196,0.0629401350461,0.0115,0.1845,0.196,0.0629401350461,0.0115,0.1845,0.196,0.0629401350461,0.0115,0.1845,0.196,0.0629401350461,0.0115,0.1845,0.196,0.0629401350461
35120000,89.337473466,139.250759766,64.3808303157,0.7875,0.187,0.606,0.023,0.1855,0.2085,0.123879672006,0.023,0.1855,0.2085,0.123879672006,0.023,0.1855,0.2085,0.123879672006,0.023,0.1855,0.2085,0.123879672006,0.023,0.1855,0.2085,0.123879672006,0.023,0.1855,0.2085,0.123879672006
35120000,89.603708871,137.996899244,65.4071136846,0.754,0.1945,0.514,0.0205,0.181,0.2015,0.116524797666,0.0205,0.181,0.2015,0.116524797666,0.0205,0.181,0.2015,0.116524797666,0.0205,0.181,0.2015,0.116524797666,0.0205,0.181,0.2015,0.116524797666,0.0205,0.181,0.2015,0.116524797666
35120000,89.6842701759,137.713909067,65.6694507305,0.776,0.2015,0.583,0.0085,0.1925,0.201,0.0441871157224,0.0085,0.1925,0.201,0.0441871157224,0.0085,0.1925,0.201,0.0441871157224,0.0085,0.1925,0.201,0.0441871157224,0.0085,0.1925,0.201,0.0441871157224,0.0085,0.1925,0.201,0.0441871157224
35120000,89.7587501976,139.281773905,64.9972383438,0.7705,0.1975,0.574,0.0095,0.191,0.2005,0.0495046620047,0.0095,0.191,0.2005,0.0495046620047,0.0095,0.191,0.2005,0.0495046620047,0.0095,0.191,0.2005,0.0495046620047,0.0095,0.191,0.2005,0.0495046620047,0.0095,0.191,0.2005,0.0495046620047
35120000,90.1590612031,139.223477555,65.6268530271,0.7745,0.197,0.5915,0.023,0.1785,0.2015,0.129282420478,0.023,0.1785,0.2015,0.129282420478,0.023,0.1785,0.2015,0.129282420478,0.021,0.1785,0.1995,0.118412855261,0.021,0.1785,0.1995,0.118412855261,0.021,0.1785,0.1995,0.118412855261
35120000,90.2015648492,138.444394996,66.0801497757,0.77,0.191,0.5825,0.058,0.1825,0.2405,0.316092308959,0.058,0.1815,0.2395,0.317080451252,0.058,0.1815,0.2395,0.317080451252,0.058,0.1815,0.2395,0.317080451252,0.058,0.1815,0.2395,0.317080451252,0.058,0.1815,0.2395,0.317080451252
35120000,90.8203968487,141.219192519,65.6209990138,0.792,0.274,0.5825,0.037,0.266,0.303,0.142507763975,0.037,0.266,0.303,0.142507763975,0.037,0.266,0.303,0.142507763975,0.037,0.266,0.303,0.142507763975,0.037,0.266,0.303,0.142507763975,0.037,0.266,0.303,0.142507763975
35120000,91.1210589344,142.090853605,65.6361615989,0.7875,0.1985,0.5885,0.0215,0.1965,0.218,0.112983483907,0.0215,0.1965,0.218,0.112983483907,0.0215,0.1965,0.218,0.112983483907,0.0215,0.1965,0.218,0.112983483907,0.0215,0.1965,0.218,0.112983483907,0.0215,0.1965,0.218,0.112983483907
35120000,91.1726714741,140.52741575,66.4952993359,0.78,0.192,0.584,0.019,0.1835,0.2025,0.102859436759,0.015,0.1835,0.1985,0.0820261034256,0.015,0.1835,0.1985,0.0820261034256,0.015,0.1835,0.1985,0.0820261034256,0.015,0.1835,0.1985,0.0820261034256,0.015,0.1835,0.1985,0.0820261034256
35120000,91.200511693,140.862205179,66.3696649502,0.7415,0.189,0.5495,0.01,0.189,0.199,0.0535037878788,0.01,0.189,0.199,0.0535037878788,0.01,0.189,0.199,0.0535037878788,0.01,0.189,0.199,0.0535037878788,0.01,0.189,0.199,0.0535037878788,0.01,0.189,0.199,0.0535037878788
35120000,91.2811041398,141.733045064,66.0551336777,0.7815,0.179,0.6,0.0095,0.161,0.1705,0.0589503340862,0.0095,0.161,0.1705,0.0589503340862,0.0095,0.161,0.1705,0.0589503340862,0.0095,0.161,0.1705,0.0589503340862,0.0095,0.161,0.1705,0.0589503340862,0.0095,0.161,0.1705,0.0589503340862
35120000,91.4135885014,142.231717667,66.0045239189,0.773,0.192,0.5815,0.0165,0.178,0.1945,0.0933296061299,0.0165,0.178,0.1945,0.0933296061299,0.0165,0.178,0.1945,0.0933296061299,0.0165,0.178,0.1945,0.0933296061299,0.0165,0.178,0.1945,0.0933296061299,0.0165,0.178,0.1945,0.0933296061299
35120000,91.6714082414,141.781036695,66.6165940145,0.773,0.1935,0.583,0.02,0.1775,0.1975,0.106189770375,0.02,0.1775,0.1975,0.106189770375,0.02,0.1775,0.1975,0.106189770375,0.02,0.1775,0.1975,0.106189770375,0.02,0.1775,0.1975,0.106189770375,0.02,0.1775,0.1975,0.106189770375
35120000,91.7586977393,140.949703208,67.1631950049,0.7675,0.189,0.5775,0.008,0.177,0.185,0.0461913895993,0.008,0.177,0.185,0.0461913895993,0.008,0.177,0.185,0.0461913895993,0.008,0.177,0.185,0.0461913895993,0.008,0.177,0.185,0.0461913895993,0.008,0.177,0.185,0.0461913895993
35120000,92.1607635058,142.482426719,66.9999318995,0.7765,0.196,0.599,0.0095,0.1855,0.195,0.0503499670619,0.0095,0.1855,0.195,0.0503499670619,0.0095,0.1855,0.195,0.0503499670619,0.0095,0.1855,0.195,0.0503499670619,0.0095,0.1855,0.195,0.0503499670619,0.0095,0.1855,0.195,0.0503499670619
35120000,92.3044415882,143.484513947,66.7144054091,0.757,0.1955,0.5635,0.019,0.191,0.21,0.100822216733,0.019,0.191,0.21,0.100822216733,0.019,0.191,0.21,0.100822216733,0.019,0.191,0.21,0.100822216733,0.019,0.191,0.21,0.100822216733,0.019,0.191,0.21,0.100822216733
35120000,92.3711047765,143.248565935,66.9323741972,0.7595,0.182,0.5765,0.015,0.182,0.197,0.0825451722191,0.015,0.182,0.197,0.0825451722191,0.015,0.182,0.197,0.0825451722191,0.015,0.182,0.197,0.0825451722191,0.015,0.182,0.197,0.0825451722191,0.015,0.182,0.197,0.0825451722191
35120000,92.4048998706,144.698419529,66.2581400414,0.7905,0.188,0.6095,0.021,0.18,0.201,0.116106719368,0.021,0.18,0.201,0.116106719368,0.021,0.18,0.201,0.116106719368,0.021,0.18,0.201,0.116106719368,0.021,0.18,0.201,0.116106719368,0.021,0.18,0.201,0.116106719368
35120000,92.5561591769,143.468709141,67.0998841948,0.772,0.185,0.4995,0.01,0.184,0.194,0.0539478637305,0.01,0.184,0.194,0.0539478637305,0.01,0.184,0.194,0.0539478637305,0.01,0.184,0.194,0.0539478637305,0.01,0.184,0.194,0.0539478637305,0.01,0.184,0.194,0.0539478637305
35120000,92.7890631628,142.614693442,67.8762480229,0.7545,0.189,0.562,0.027,0.1805,0.2075,0.152091567852,0.027,0.1805,0.2075,0.152091567852,0.027,0.1805,0.2075,0.152091567852,0.027,0.1805,0.2075,0.152091567852,0.027,0.1805,0.2075,0.152091567852,0.027,0.1805,0.2075,0.152091567852
35120000,92.8055476813,144.591080613,66.9127812153,0.777,0.1865,0.5915,0.014,0.1805,0.1945,0.0759085419412,0.014,0.1805,0.1945,0.0759085419412,0.014,0.1805,0.1945,0.0759085419412,0.014,0.1805,0.1945,0.0759085419412,0.014,0.1805,0.1945,0.0759085419412,0.014,0.1805,0.1945,0.0759085419412
35120000,93.181698339,143.971950737,67.7865721403,0.7655,0.1835,0.589,0.013,0.1835,0.1965,0.0695265151515,0.013,0.1835,0.1965,0.0695265151515,0.013,0.1835,0.1965,0.0695265151515,0.013,0.1835,0.1965,0.0695265151515,0.012,0.1835,0.1955,0.0645265151515,0.012,0.1835,0.1955,0.0645265151515
35120000,93.3127113841,144.87509977,67.5315171912,0.7695,0.2885,0.58,0.0235,0.2755,0.299,0.118362389422,0.0235,0.2755,0.299,0.118362389422,0.0235,0.2755,0.299,0.118362389422,0.0235,0.2755,0.299,0.118362389422,0.0235,0.2755,0.299,0.118362389422,0.023,0.2755,0.2985,0.115521480331
35120000,93.3184263417,144.706022596,67.6246282146,0.7705,0.2255,0.5665,0.01,0.2245,0.2345,0.0478160014006,0.01,0.2245,0.2345,0.0478160014006,0.01,0.2245,0.2345,0.0478160014006,0.01,0.2245,0.2345,0.0478160014006,0.01,0.2245,0.2345,0.0478160014006,0.01,0.2245,0.2345,0.0478160014006
35120000,93.3807473913,142.908613906,68.6168141338,0.7695,0.1865,0.578,0.0335,0.179,0.2125,0.186276585733,0.0335,0.179,0.2125,0.186276585733,0.0335,0.179,0.2125,0.186276585733,0.0335,0.179,0.2125,0.186276585733,0.0335,0.179,0.2125,0.186276585733,0.0335,0.179,0.2125,0.186276585733
35120000,93.4347015358,144.945558677,67.6792729652,0.775,0.184,0.477,0.0125,0.174,0.1865,0.0686420011148,0.0125,0.174,0.1865,0.0686420011148,0.0125,0.174,0.1865,0.0686420011148,0.0125,0.174,0.1865,0.0686420011148,0.0125,0.174,0.1865,0.0686420011148,0.0125,0.174,0.1865,0.0686420011148
35120000,93.4523423341,144.344864828,68.0060810873,0.756,0.204,0.544,0.016,0.192,0.208,0.0899470899471,0.016,0.192,0.208,0.0899470899471,0.016,0.192,0.208,0.0899470899471,0.016,0.192,0.208,0.0899470899471,0.016,0.192,0.208,0.0899470899471,0.016,0.192,0.208,0.0899470899471
35120000,93.6200871532,144.655970609,68.1021454253,0.7335,0.1885,0.5395,0.048,0.188,0.236,0.259057971014,0.048,0.18,0.228,0.279761904762,0.048,0.18,0.228,0.279761904762,0.048,0.18,0.228,0.279761904762,0.048,0.18,0.228,0.279761904762,0.048,0.18,0.228,0.279761904762
35120000,93.6521401925,146.055781105,67.4503197365,0.7805,0.2305,0.587,0.0155,0.2115,0.227,0.08230349589,0.0155,0.2115,0.227,0.08230349589,0.0155,0.2115,0.227,0.08230349589,0.0155,0.2115,0.227,0.08230349589,0.0155,0.2115,0.227,0.08230349589,0.015,0.2115,0.2265,0.0808830413446
35120000,94.1010834828,145.95155656,68.1758469442,0.7575,0.187,0.5685,0.013,0.1845,0.1975,0.0705667701863,0.013,0.1845,0.1975,0.0705667701863,0.013,0.1845,0.1975,0.0705667701863,0.013,0.1845,0.1975,0.0705667701863,0.013,0.1845,0.1975,0.0705667701863,0.013,0.1845,0.1975,0.0705667701863
35120000,94.3903729546,146.094802564,68.53815815,0.78,0.1805,0.595,0.01,0.17,0.18,0.0598484848485,0.01,0.17,0.18,0.0598484848485,0.01,0.17,0.18,0.0598484848485,0.01,0.17,0.18,0.0598484848485,0.01,0.17,0.18,0.0598484848485,0.01,0.17,0.18,0.0598484848485
35120000,94.6981492001,146.89032804,68.6020597801,0.7335,0.187,0.5375,0.022,0.184,0.206,0.120454545455,0.022,0.184,0.206,0.120454545455,0.022,0.184,0.206,0.120454545455,0.022,0.184,0.206,0.120454545455,0.022,0.184,0.206,0.120454545455,0.022,0.184,0.206,0.120454545455
35120000,94.9191414124,146.459430659,69.1489967893,0.7555,0.186,0.5665,0.02,0.162,0.182,0.124516908213,0.02,0.162,0.182,0.124516908213,0.02,0.162,0.182,0.124516908213,0.02,0.162,0.182,0.124516908213,0.02,0.162,0.182,0.124516908213,0.02,0.162,0.182,0.124516908213
35120000,94.938794845,145.542537957,69.6369232889,0.755,0.1965,0.5665,0.017,0.185,0.202,0.0920031055901,0.017,0.185,0.202,0.0920031055901,0.017,0.185,0.202,0.0920031055901,0.017,0.185,0.202,0.0920031055901,0.017,0.185,0.202,0.0920031055901,0.017,0.185,0.202,0.0920031055901
35120000,94.9911756623,146.099656304,69.4369353413,0.7615,0.1925,0.569,0.012,0.1715,0.1835,0.068095680778,0.012,0.1715,0.1835,0.068095680778,0.012,0.1715,0.1835,0.068095680778,0.012,0.1715,0.1835,0.068095680778,0.012,0.1715,0.1835,0.068095680778,0.012,0.1715,0.1835,0.068095680778
35120000,95.0591336524,147.524201893,68.8265995321,0.767,0.1865,0.585,0.011,0.1785,0.1895,0.0618824110672,0.011,0.1785,0.1895,0.0618824110672,0.011,0.1785,0.1895,0.0618824110672,0.011,0.1785,0.1895,0.0618824110672,0.011,0.1785,0.1895,0.0618824110672,0.011,0.1785,0.1895,0.0618824110672
35120000,95.5601922951,148.778854193,68.9508613461,0.75,0.195,0.5565,0.0125,0.185,0.1975,0.0659117965368,0.0125,0.185,0.1975,0.0659117965368,0.0125,0.185,0.1975,0.0659117965368,0.0125,0.185,0.1975,0.0659117965368,0.0125,0.185,0.1975,0.0659117965368,0.0125,0.185,0.1975,0.0659117965368
35120000,95.8457131197,148.61760519,69.4597670843,0.7485,0.1935,0.552,0.0145,0.191,0.2055,0.0764678030303,0.0145,0.191,0.2055,0.0764678030303,0.0145,0.191,0.2055,0.0764678030303,0.0145,0.191,0.2055,0.0764678030303,0.0145,0.191,0.2055,0.0764678030303,0.0145,0.191,0.2055,0.0764678030303
35120000,95.850767875,149.347034506,69.1026345596,0.7895,0.176,0.6095,0.012,0.176,0.188,0.0677348014305,0.012,0.176,0.188,0.0677348014305,0.012,0.176,0.188,0.0677348014305,0.012,0.176,0.188,0.0677348014305,0.012,0.176,0.188,0.0677348014305,0.012,0.176,0.188,0.0677348014305
35120000,96.0163144979,148.072154985,69.9883942546,0.759,0.1875,0.5695,0.033,0.186,0.219,0.176924818841,0.033,0.186,0.219,0.176924818841,0.033,0.186,0.219,0.176924818841,0.033,0.186,0.219,0.176924818841,0.033,0.186,0.219,0.176924818841,0.033,0.186,0.219,0.176924818841
35120000,96.1963240422,145.735879735,71.4265461958,0.7095,0.1885,0.5205,0.017,0.171,0.188,0.0994071146245,0.017,0.171,0.188,0.0994071146245,0.017,0.171,0.188,0.0994071146245,0.017,0.171,0.188,0.0994071146245,0.017,0.171,0.188,0.0994071146245,0.017,0.171,0.188,0.0994071146245
35120000,96.4031925493,148.233784216,70.4878967161,0.755,0.176,0.573,0.017,0.172,0.189,0.0987554112554,0.017,0.172,0.189,0.0987554112554,0.017,0.172,0.189,0.0987554112554,0.016,0.172,0.188,0.0930735930736,0.016,0.172,0.188,0.0930735930736,0.016,0.172,0.188,0.0930735930736
35120000,96.4494044311,148.529160658,70.4095263174,0.7535,0.184,0.574,0.024,0.177,0.201,0.136116600791,0.024,0.177,0.201,0.136116600791,0.024,0.177,0.201,0.136116600791,0.024,0.177,0.201,0.136116600791,0.024,0.177,0.201,0.136116600791,0.024,0.177,0.201,0.136116600791
35120000,96.6445957834,147.510531492,71.2116279289,0.743,0.189,0.561,0.0255,0.188,0.2135,0.136013669302,0.0255,0.188,0.2135,0.136013669302,0.0255,0.188,0.2135,0.136013669302,0.0255,0.188,0.2135,0.136013669302,0.0255,0.188,0.2135,0.136013669302,0.0255,0.188,0.2135,0.136013669302
35120000,96.8362911252,148.176213882,71.1663297465,0.7355,0.192,0.5485,0.0225,0.179,0.2015,0.126883646245,0.0225,0.179,0.2015,0.126883646245,0.0225,0.179,0.2015,0.126883646245,0.0225,0.177,0.1995,0.127965897327,0.0225,0.177,0.1995,0.127965897327,0.0225,0.177,0.1995,0.127965897327
35120000,97.2211722706,149.982926808,70.8402950017,0.7535,0.184,0.5695,0.021,0.1795,0.2005,0.115512657632,0.021,0.1795,0.2005,0.115512657632,0.021,0.1795,0.2005,0.115512657632,0.021,0.1795,0.2005,0.115512657632,0.021,0.1795,0.2005,0.115512657632,0.021,0.1795,0.2005,0.115512657632
35120000,97.6058433748,149.568071172,71.6247294761,0.765,0.18,0.583,0.032,0.1735,0.2055,0.185423724826,0.032,0.1735,0.2055,0.185423724826,0.032,0.1735,0.2055,0.185423724826,0.032,0.1735,0.2055,0.185423724826,0.032,0.1735,0.2055,0.185423724826,0.032,0.1735,0.2055,0.185423724826
35120000,97.7400091114,149.565356538,71.8273353981,0.7525,0.182,0.572,0.011,0.1775,0.1885,0.0633346273292,0.011,0.1775,0.1885,0.0633346273292,0.011,0.1775,0.1885,0.0633346273292,0.011,0.1775,0.1885,0.0633346273292,0.011,0.1775,0.1885,0.0633346273292,0.011,0.1775,0.1885,0.0633346273292
35120000,97.9459801529,150.240582094,71.7986791824,0.7425,0.18,0.5685,0.02,0.1705,0.1905,0.118235930736,0.02,0.1705,0.1905,0.118235930736,0.02,0.1705,0.1905,0.118235930736,0.02,0.1705,0.1905,0.118235930736,0.02,0.1705,0.1905,0.118235930736,0.02,0.1705,0.1905,0.118235930736
35200000,85.9490220226,122.335347004,67.755859532,0.682,0.201,0.482,0.0195,0.194,0.2135,0.100869565217,0.0195,0.194,0.2135,0.100869565217,0.0195,0.194,0.2135,0.100869565217,0.0195,0.194,0.2135,0.100869565217,0.0195,0.194,0.2135,0.100869565217,0.0195,0.194,0.2135,0.100869565217
35200000,88.0888875595,139.764085812,62.2512884335,0.8285,0.196,0.629,0.0255,0.188,0.2135,0.13597826087,0.0255,0.188,0.2135,0.13597826087,0.0255,0.188,0.2135,0.13597826087,0.0255,0.188,0.2135,0.13597826087,0.0255,0.188,0.2135,0.13597826087,0.0215,0.188,0.2095,0.114239130435
35200000,89.2465704193,138.367257747,64.6862267552,0.76,0.188,0.556,0.02,0.176,0.196,0.108395989975,0.02,0.176,0.196,0.108395989975,0.02,0.176,0.196,0.108395989975,0.02,0.176,0.196,0.108395989975,0.02,0.176,0.196,0.108395989975,0.02,0.176,0.196,0.108395989975
35200000,89.4798628403,140.828481532,63.8055534947,0.8205,0.197,0.623,0.026,0.1955,0.2215,0.132621237458,0.026,0.1955,0.2215,0.132621237458,0.026,0.1955,0.2215,0.132621237458,0.026,0.1955,0.2215,0.132621237458,0.026,0.1955,0.2215,0.132621237458,0.026,0.1955,0.2215,0.132621237458
35200000,89.8460726124,137.840605108,65.8488063646,0.75,0.1925,0.5535,0.008,0.1885,0.1965,0.0424773550725,0.008,0.1885,0.1965,0.0424773550725,0.008,0.1885,0.1965,0.0424773550725,0.008,0.1885,0.1965,0.0424773550725,0.008,0.1885,0.1965,0.0424773550725,0.008,0.1885,0.1965,0.0424773550725
35200000,90.1037396954,139.451193668,65.4300127092,0.7815,0.1965,0.5825,0.0205,0.194,0.2145,0.105452898551,0.0205,0.194,0.2145,0.105452898551,0.0205,0.194,0.2145,0.105452898551,0.0205,0.194,0.2145,0.105452898551,0.0205,0.194,0.2145,0.105452898551,0.0205,0.194,0.2145,0.105452898551
35200000,90.2009386966,137.288679022,66.6570685341,0.746,0.2015,0.552,0.039,0.1685,0.2075,0.241898319072,0.039,0.1685,0.2075,0.241898319072,0.039,0.1685,0.2075,0.241898319072,0.039,0.1685,0.2075,0.241898319072,0.039,0.1685,0.2075,0.241898319072,0.039,0.1685,0.2075,0.241898319072
35200000,91.0777173762,138.234051359,67.4995503848,0.7535,0.1945,0.5635,0.028,0.19,0.218,0.145785953177,0.028,0.19,0.218,0.145785953177,0.028,0.19,0.218,0.145785953177,0.028,0.19,0.218,0.145785953177,0.028,0.19,0.218,0.145785953177,0.028,0.19,0.218,0.145785953177
35200000,91.5956396547,139.536540409,67.6251892773,0.66,0.196,0.5075,0.013,0.186,0.199,0.0721816770186,0.013,0.186,0.199,0.0721816770186,0.013,0.186,0.199,0.0721816770186,0.013,0.186,0.199,0.0721816770186,0.013,0.186,0.199,0.0721816770186,0.013,0.186,0.199,0.0721816770186
35200000,91.8035360816,143.393187668,66.0087102885,0.809,0.1935,0.615,0.0205,0.182,0.2025,0.11138398047,0.0205,0.182,0.2025,0.11138398047,0.0205,0.1815,0.202,0.111631016043,0.0205,0.1815,0.202,0.111631016043,0.0205,0.1815,0.202,0.111631016043,0.0205,0.1815,0.202,0.111631016043
35200000,91.8671828791,141.482484456,67.0595320907,0.77,0.206,0.573,0.013,0.196,0.209,0.068284410336,0.013,0.196,0.209,0.068284410336,0.013,0.196,0.209,0.068284410336,0.013,0.196,0.209,0.068284410336,0.013,0.196,0.209,0.068284410336,0.013,0.196,0.209,0.068284410336
35200000,92.8173902624,143.079116906,67.6865269406,0.7515,0.1885,0.558,0.019,0.1865,0.2055,0.102477355072,0.019,0.1865,0.2055,0.102477355072,0.019,0.1865,0.2055,0.102477355072,0.019,0.1865,0.2055,0.102477355072,0.019,0.1865,0.2055,0.102477355072,0.019,0.1865,0.2055,0.102477355072
35200000,93.3879250123,143.160954243,68.5014103969,0.7485,0.1995,0.544,0.021,0.1715,0.1925,0.121820890542,0.021,0.1715,0.1925,0.121820890542,0.021,0.1715,0.1925,0.121820890542,0.021,0.1715,0.1925,0.121820890542,0.017,0.1715,0.1885,0.0955051010679,0.017,0.1715,0.1885,0.0955051010679
35200000,93.8995447129,144.241391826,68.7286211561,0.7515,0.1965,0.5535,0.019,0.194,0.213,0.0967857142857,0.019,0.194,0.213,0.0967857142857,0.019,0.194,0.213,0.0967857142857,0.019,0.194,0.213,0.0967857142857,0.019,0.194,0.213,0.0967857142857,0.019,0.194,0.213,0.0967857142857
35200000,94.0372496559,142.925579371,69.5930847984,0.753,0.2005,0.5595,0.0115,0.1995,0.211,0.057525083612,0.0115,0.1995,0.211,0.057525083612,0.0115,0.1995,0.211,0.057525083612,0.0115,0.1995,0.211,0.057525083612,0.0115,0.1995,0.211,0.057525083612,0.0115,0.1995,0.211,0.057525083612
35200000,94.1290451271,144.233961204,69.0765870885,0.776,0.1975,0.5815,0.0135,0.192,0.2055,0.0710248447205,0.0135,0.192,0.2055,0.0710248447205,0.0135,0.192,0.2055,0.0710248447205,0.0135,0.192,0.2055,0.0710248447205,0.0135,0.192,0.2055,0.0710248447205,0.0135,0.192,0.2055,0.0710248447205
35200000,94.3757176066,145.518435545,68.8043586372,0.7685,0.1935,0.569,0.014,0.1845,0.1985,0.0755291266704,0.014,0.1845,0.1985,0.0755291266704,0.014,0.1845,0.1985,0.0755291266704,0.014,0.1845,0.1985,0.0755291266704,0.014,0.1845,0.1985,0.0755291266704,0.014,0.1845,0.1985,0.0755291266704
35200000,94.5216473864,145.222097364,69.1714223977,0.7535,0.1945,0.5515,0.0135,0.1925,0.206,0.0707386363636,0.0135,0.1925,0.206,0.0707386363636,0.0135,0.1925,0.206,0.0707386363636,0.0135,0.1925,0.206,0.0707386363636,0.0135,0.1925,0.206,0.0707386363636,0.0135,0.1925,0.206,0.0707386363636
35200000,95.0625931474,146.052248697,69.5677653726,0.77,0.2005,0.57,0.015,0.2,0.215,0.0740955964326,0.015,0.2,0.215,0.0740955964326,0.015,0.2,0.215,0.0740955964326,0.015,0.2,0.215,0.0740955964326,0.015,0.2,0.215,0.0740955964326,0.015,0.2,0.215,0.0740955964326
35200000,95.2302264748,146.411657121,69.6395111518,0.762,0.1925,0.573,0.032,0.181,0.213,0.172039337474,0.032,0.181,0.213,0.172039337474,0.032,0.181,0.213,0.172039337474,0.032,0.181,0.213,0.172039337474,0.032,0.181,0.213,0.172039337474,0.032,0.181,0.213,0.172039337474
35200000,95.3851805466,146.664125783,69.7457079285,0.7565,0.191,0.4975,0.0145,0.1835,0.198,0.0776673507652,0.0145,0.1835,0.198,0.0776673507652,0.0145,0.1835,0.198,0.0776673507652,0.0145,0.1835,0.198,0.0776673507652,0.0145,0.1835,0.198,0.0776673507652,0.0145,0.1835,0.198,0.0776673507652
35200000,95.5136807983,148.026083962,69.2574792164,0.769,0.18,0.576,0.0255,0.176,0.2015,0.146775362319,0.0255,0.172,0.1975,0.150727931489,0.0255,0.172,0.1975,0.150727931489,0.0255,0.172,0.1975,0.150727931489,0.0255,0.172,0.1975,0.150727931489,0.0255,0.172,0.1975,0.150727931489
35200000,96.1310713936,146.068482351,71.1623659151,0.7565,0.2065,0.5465,0.014,0.182,0.196,0.0767391304348,0.014,0.182,0.196,0.0767391304348,0.014,0.182,0.196,0.0767391304348,0.014,0.18,0.194,0.0780549199085,0.014,0.18,0.194,0.0780549199085,0.014,0.18,0.194,0.0780549199085
35200000,96.1469221393,146.755661524,70.8425524466,0.763,0.203,0.557,0.0125,0.197,0.2095,0.063125,0.0125,0.197,0.2095,0.063125,0.0125,0.197,0.2095,0.063125,0.0125,0.197,0.2095,0.063125,0.0125,0.197,0.2095,0.063125,0.0125,0.197,0.2095,0.063125
35200000,96.1554246503,147.806569425,70.3298522628,0.7545,0.227,0.518,0.013,0.218,0.231,0.0625776397516,0.013,0.218,0.231,0.0625776397516,0.013,0.218,0.231,0.0625776397516,0.013,0.218,0.231,0.0625776397516,0.013,0.218,0.231,0.0625776397516,0.013,0.218,0.231,0.0625776397516
35200000,96.3310084018,149.070809303,69.9611079514,0.792,0.1995,0.5885,0.017,0.1795,0.1965,0.0945578063241,0.017,0.1795,0.1965,0.0945578063241,0.017,0.1795,0.1965,0.0945578063241,0.017,0.1795,0.1965,0.0945578063241,0.017,0.1795,0.1965,0.0945578063241,0.017,0.1795,0.1965,0.0945578063241
35200000,96.8575413997,148.190267733,71.1911782333,0.768,0.2055,0.5595,0.008,0.2055,0.2135,0.0389503205128,0.008,0.2055,0.2135,0.0389503205128,0.008,0.2055,0.2135,0.0389503205128,0.008,0.2055,0.2135,0.0389503205128,0.008,0.2055,0.2135,0.0389503205128,0.008,0.2055,0.2135,0.0389503205128
35200000,96.971635011,148.49793097,71.2084870316,0.7385,0.199,0.5345,0.0395,0.198,0.2375,0.199520814331,0.0395,0.198,0.2375,0.199520814331,0.0395,0.198,0.2375,0.199520814331,0.0395,0.198,0.2375,0.199520814331,0.0395,0.198,0.2375,0.199520814331,0.0395,0.198,0.2375,0.199520814331
35200000,97.0818533676,147.314544787,71.965507658,0.758,0.196,0.568,0.0205,0.1845,0.205,0.108711827122,0.0205,0.1845,0.205,0.108711827122,0.02,0.1845,0.2045,0.105994435818,0.02,0.1845,0.2045,0.105994435818,0.02,0.1845,0.2045,0.105994435818,0.02,0.1845,0.2045,0.105994435818
35200000,97.3287513742,147.508661308,72.2387964073,0.75,0.1985,0.5545,0.013,0.1845,0.1975,0.0709427990964,0.013,0.1845,0.1975,0.0709427990964,0.013,0.1845,0.1975,0.0709427990964,0.013,0.1845,0.1975,0.0709427990964,0.013,0.1845,0.1975,0.0709427990964,0.013,0.1845,0.1975,0.0709427990964
35200000,97.5012344574,149.743727029,71.3799881716,0.7415,0.195,0.5065,0.0135,0.1675,0.181,0.0826587528604,0.0135,0.1675,0.181,0.0826587528604,0.0135,0.1675,0.181,0.0826587528604,0.0135,0.1675,0.181,0.0826587528604,0.0135,0.1675,0.181,0.0826587528604,0.0135,0.1675,0.181,0.0826587528604
35200000,97.9539348328,149.0293843,72.4162100993,0.7325,0.194,0.5385,0.0085,0.194,0.2025,0.04375,0.0085,0.194,0.2025,0.04375,0.0085,0.194,0.2025,0.04375,0.0085,0.194,0.2025,0.04375,0.0085,0.194,0.2025,0.04375,0.0085,0.194,0.2025,0.04375
35200000,98.2778152611,148.6610134,73.0862161917,0.7655,0.187,0.5675,0.017,0.1865,0.2035,0.08979743083,0.017,0.1865,0.2035,0.08979743083,0.017,0.1865,0.2035,0.08979743083,0.017,0.1865,0.2035,0.08979743083,0.017,0.1865,0.2035,0.08979743083,0.017,0.1865,0.2035,0.08979743083
35200000,98.332596469,148.650549362,73.1736200225,0.717,0.1955,0.5145,0.0325,0.185,0.2175,0.176723073123,0.0325,0.185,0.2175,0.176723073123,0.0325,0.185,0.2175,0.176723073123,0.0325,0.185,0.2175,0.176723073123,0.0325,0.185,0.2175,0.176723073123,0.0325,0.185,0.2175,0.176723073123
35200000,98.637316092,149.813542215,73.0492030306,0.727,0.192,0.54,0.011,0.189,0.2,0.0607638888889,0.011,0.189,0.2,0.0607638888889,0.011,0.189,0.2,0.0607638888889,0.011,0.189,0.2,0.0607638888889,0.011,0.189,0.2,0.0607638888889,0.011,0.189,0.2,0.0607638888889
35200000,98.9463316327,149.954347346,73.4423237761,0.7445,0.2,0.539,0.008,0.2,0.208,0.0400731605351,0.008,0.2,0.208,0.0400731605351,0.008,0.2,0.208,0.0400731605351,0.008,0.2,0.208,0.0400731605351,0.008,0.2,0.208,0.0400731605351,0.008,0.2,0.208,0.0400731605351
