ID,mbp,sbp,dbp,cp,sut,dt,dt10,st10,st10_p_dt10,st10_d_dt10,dt25,st25,st25_p_dt25,st25_d_dt25,dt33,st33,st33_p_dt33,st33_d_dt33,dt50,st50,st50_p_dt50,st50_d_dt50,dt66,st66,st66_p_dt66,st66_d_dt66,dt75,st75,st75_p_dt75,st75_d_dt75
34040000,92.5818242732,128.152981935,74.7962454425,0.733,0.214,0.534,0.0165,0.2115,0.228,0.0775333694084,0.0165,0.2115,0.228,0.0775333694084,0.0165,0.2115,0.228,0.0775333694084,0.0165,0.2115,0.228,0.0775333694084,0.0165,0.2115,0.228,0.0775333694084,0.0165,0.2115,0.228,0.0775333694084
34040000,93.3619358722,129.42678767,75.3295099735,0.7555,0.202,0.5565,0.0185,0.193,0.2115,0.0949203604367,0.0185,0.193,0.2115,0.0949203604367,0.0185,0.193,0.2115,0.0949203604367,0.0185,0.193,0.2115,0.0949203604367,0.0185,0.193,0.2115,0.0949203604367,0.0185,0.193,0.2115,0.0949203604367
34040000,94.3167617606,132.17169128,75.3892970008,0.746,0.213,0.476,0.0355,0.206,0.2415,0.171304038152,0.0355,0.206,0.2415,0.171304038152,0.0355,0.206,0.2415,0.171304038152,0.0355,0.204,0.2395,0.172457884306,0.0315,0.204,0.2355,0.153227115075,0.0315,0.204,0.2355,0.153227115075
34040000,94.9538925955,131.203521637,76.8290780744,0.748,0.273,0.5485,0.012,0.25,0.262,0.0558639910814,0.012,0.25,0.262,0.0558639910814,0.012,0.25,0.262,0.0558639910814,0.012,0.25,0.262,0.0558639910814,0.012,0.25,0.262,0.0558639910814,0.012,0.25,0.262,0.0558639910814
34040000,95.018181485,133.026530573,76.0140069409,0.789,0.2555,0.577,0.021,0.2515,0.2725,0.0927968454874,0.021,0.2515,0.2725,0.0927968454874,0.021,0.2515,0.2725,0.0927968454874,0.021,0.2515,0.2725,0.0927968454874,0.021,0.2515,0.2725,0.0927968454874,0.021,0.2515,0.2725,0.0927968454874
34040000,95.1307780218,132.549710897,76.421311584,0.752,0.2095,0.553,0.0135,0.209,0.2225,0.0650356125356,0.0135,0.209,0.2225,0.0650356125356,0.0135,0.209,0.2225,0.0650356125356,0.0135,0.209,0.2225,0.0650356125356,0.0135,0.209,0.2225,0.0650356125356,0.0135,0.209,0.2225,0.0650356125356
34040000,96.2197017804,133.81756286,77.4207712405,0.748,0.2155,0.5035,0.028,0.2135,0.2415,0.138920933476,0.028,0.2135,0.2415,0.138920933476,0.028,0.2135,0.2415,0.138920933476,0.028,0.2135,0.2415,0.138920933476,0.028,0.2135,0.2415,0.138920933476,0.028,0.2135,0.2415,0.138920933476
34040000,96.5326073234,134.439624947,77.5790985118,0.728,0.208,0.416,0.016,0.208,0.224,0.0769230769231,0.016,0.208,0.224,0.0769230769231,0.016,0.208,0.224,0.0769230769231,0.016,0.208,0.224,0.0769230769231,0.016,0.208,0.224,0.0769230769231,0.016,0.208,0.224,0.0769230769231
34040000,96.6645446134,133.174320061,78.4096568895,0.76,0.2075,0.5435,0.018,0.2,0.218,0.0910239324782,0.018,0.1995,0.2175,0.0911009029216,0.018,0.1995,0.2175,0.0911009029216,0.018,0.1995,0.2175,0.0911009029216,0.018,0.1995,0.2175,0.0911009029216,0.018,0.1995,0.2175,0.0911009029216
34040000,96.9776453343,136.156141921,77.3883970411,0.7565,0.217,0.5065,0.0135,0.2115,0.225,0.0642763425658,0.0135,0.2115,0.225,0.0642763425658,0.0135,0.2115,0.225,0.0642763425658,0.0135,0.2115,0.225,0.0642763425658,0.0135,0.2115,0.225,0.0642763425658,0.0135,0.2115,0.225,0.0642763425658
34040000,97.2503294939,135.649373524,78.050807479,0.6795,0.273,0.442,0.0095,0.2725,0.282,0.0387203557312,0.0095,0.2725,0.282,0.0387203557312,0.0095,0.2725,0.282,0.0387203557312,0.0095,0.2725,0.282,0.0387203557312,0.008,0.2725,0.2805,0.0309078557312,0.008,0.2725,0.2805,0.0309078557312
34040000,97.7365164898,136.050798987,78.5793752411,0.7425,0.2025,0.5455,0.018,0.188,0.206,0.095551163812,0.018,0.188,0.206,0.095551163812,0.018,0.188,0.206,0.095551163812,0.018,0.188,0.206,0.095551163812,0.018,0.188,0.206,0.095551163812,0.018,0.188,0.206,0.095551163812
34040000,98.03001801,138.647449624,77.7213022032,0.751,0.2845,0.5075,0.0255,0.283,0.3085,0.0884604978355,0.0255,0.283,0.3085,0.0884604978355,0.0255,0.283,0.3085,0.0884604978355,0.0255,0.283,0.3085,0.0884604978355,0.0255,0.283,0.3085,0.0884604978355,0.0255,0.283,0.3085,0.0884604978355
34040000,98.2501160871,138.634310787,78.0580187373,0.755,0.196,0.557,0.0165,0.184,0.2005,0.0938484432234,0.0165,0.184,0.2005,0.0938484432234,0.0165,0.184,0.2005,0.0938484432234,0.0165,0.184,0.2005,0.0938484432234,0.0165,0.184,0.2005,0.0938484432234,0.0165,0.184,0.2005,0.0938484432234
34040000,98.2928410653,136.593212435,79.1426553804,0.7555,0.2035,0.555,0.0285,0.1925,0.221,0.148637278583,0.0285,0.1925,0.221,0.148637278583,0.0285,0.1925,0.221,0.148637278583,0.0285,0.1925,0.221,0.148637278583,0.0285,0.1925,0.221,0.148637278583,0.0265,0.1925,0.219,0.137767713366
34040000,98.6479656743,138.779185194,78.5823559143,0.74,0.209,0.512,0.011,0.209,0.22,0.0529111658746,0.011,0.209,0.22,0.0529111658746,0.011,0.209,0.22,0.0529111658746,0.011,0.209,0.22,0.0529111658746,0.011,0.209,0.22,0.0529111658746,0.011,0.209,0.22,0.0529111658746
34040000,99.00162747,139.44560055,78.7796409298,0.7355,0.2,0.519,0.0085,0.189,0.1975,0.0447759894091,0.0085,0.189,0.1975,0.0447759894091,0.0085,0.189,0.1975,0.0447759894091,0.0085,0.186,0.1945,0.0455200370282,0.0085,0.186,0.1945,0.0455200370282,0.0085,0.186,0.1945,0.0455200370282
34040000,101.216262394,143.204714792,80.2220361953,0.7455,0.203,0.544,0.02,0.1885,0.2085,0.103069753711,0.02,0.1885,0.2085,0.103069753711,0.02,0.1885,0.2085,0.103069753711,0.02,0.1885,0.2085,0.103069753711,0.02,0.1885,0.2085,0.103069753711,0.02,0.1885,0.2085,0.103069753711
34040000,101.45530927,143.57215599,80.3968859097,0.7495,0.206,0.543,0.015,0.189,0.204,0.0792677345538,0.015,0.189,0.204,0.0792677345538,0.015,0.189,0.204,0.0792677345538,0.015,0.189,0.204,0.0792677345538,0.015,0.189,0.204,0.0792677345538,0.015,0.189,0.204,0.0792677345538
34080000,91.262235257,104.34298858,84.7218585957,0.92,0.344,0.696,0.064,0.344,0.408,0.186046511628,0.064,0.344,0.408,0.186046511628,0.064,0.344,0.408,0.186046511628,0.064,0.344,0.408,0.186046511628,0.064,0.32,0.384,0.2,0.048,0.32,0.368,0.15
34120000,97.4045743198,138.752281472,76.730720744,0.7695,0.196,0.566,0.0135,0.185,0.1985,0.0717099929056,0.0135,0.185,0.1985,0.0717099929056,0.0135,0.185,0.1985,0.0717099929056,0.0125,0.185,0.1975,0.0665016595723,0.0125,0.185,0.1975,0.0665016595723,0.0125,0.185,0.1975,0.0665016595723
34120000,98.4211293669,132.288878772,81.4872546641,0.7755,0.2005,0.573,0.018,0.195,0.213,0.0915025780379,0.018,0.195,0.213,0.0915025780379,0.018,0.195,0.213,0.0915025780379,0.018,0.195,0.213,0.0915025780379,0.018,0.1945,0.2125,0.0916158026756,0.018,0.1945,0.2125,0.0916158026756
34120000,99.2585352977,140.286769909,78.744417992,0.773,0.244,0.565,0.016,0.227,0.243,0.0661059351277,0.016,0.227,0.243,0.0661059351277,0.016,0.227,0.243,0.0661059351277,0.016,0.227,0.243,0.0661059351277,0.016,0.227,0.243,0.0661059351277,0.016,0.227,0.243,0.0661059351277
34120000,99.7509558746,135.170392867,82.0412373786,0.754,0.2065,0.547,0.028,0.2,0.228,0.14,0.02,0.2,0.22,0.1,0.02,0.2,0.22,0.1,0.02,0.198,0.218,0.102083333333,0.02,0.198,0.218,0.102083333333,0.02,0.198,0.218,0.102083333333
34120000,99.8087644454,133.888971645,82.7686608456,0.768,0.2025,0.5655,0.0175,0.1975,0.215,0.0898424919485,0.0175,0.1975,0.215,0.0898424919485,0.0175,0.1975,0.215,0.0898424919485,0.0175,0.1975,0.215,0.0898424919485,0.0175,0.1975,0.215,0.0898424919485,0.0175,0.1975,0.215,0.0898424919485
34120000,99.9588262011,140.228382733,79.824047935,0.7655,0.2715,0.5405,0.013,0.2675,0.2805,0.0500351636221,0.013,0.2675,0.2805,0.0500351636221,0.013,0.2675,0.2805,0.0500351636221,0.013,0.2675,0.2805,0.0500351636221,0.013,0.2355,0.2485,0.0562851636221,0.013,0.2355,0.2485,0.0562851636221
34120000,100.940539314,143.323768127,79.7489249077,0.766,0.198,0.577,0.038,0.1915,0.2295,0.194391938747,0.032,0.1915,0.2235,0.168529869781,0.032,0.1915,0.2235,0.168529869781,0.032,0.1915,0.2235,0.168529869781,0.032,0.1915,0.2235,0.168529869781,0.032,0.1915,0.2235,0.168529869781
34120000,101.283796459,143.711517961,80.0699357085,0.78,0.2495,0.504,0.0115,0.244,0.2555,0.0502862394958,0.0115,0.244,0.2555,0.0502862394958,0.0115,0.244,0.2555,0.0502862394958,0.0115,0.244,0.2555,0.0502862394958,0.0085,0.244,0.2525,0.0352862394958,0.0085,0.244,0.2525,0.0352862394958
34120000,101.570247102,133.383339137,85.6637010846,0.7515,0.199,0.552,0.036,0.194,0.23,0.183530898449,0.036,0.194,0.23,0.183530898449,0.036,0.194,0.23,0.183530898449,0.036,0.194,0.23,0.183530898449,0.036,0.194,0.23,0.183530898449,0.02,0.194,0.214,0.103530898449
34120000,101.684041181,143.365242457,80.8434405433,0.7365,0.208,0.467,0.0205,0.2055,0.226,0.0978397740626,0.0205,0.2055,0.226,0.0978397740626,0.0205,0.2055,0.226,0.0978397740626,0.0165,0.2055,0.222,0.0751125013353,0.0165,0.2055,0.222,0.0751125013353,0.0165,0.2055,0.222,0.0751125013353
34120000,101.68837721,137.624167415,83.7204821072,0.779,0.2035,0.577,0.0245,0.187,0.2115,0.131771561772,0.0245,0.187,0.2115,0.131771561772,0.0245,0.187,0.2115,0.131771561772,0.0205,0.187,0.2075,0.109044289044,0.0205,0.187,0.2075,0.109044289044,0.0205,0.187,0.2075,0.109044289044
34120000,101.987604119,137.745878411,84.1084669721,0.764,0.205,0.5555,0.022,0.197,0.219,0.111474358974,0.022,0.197,0.219,0.111474358974,0.02,0.197,0.217,0.101474358974,0.018,0.197,0.215,0.0914743589744,0.018,0.197,0.215,0.0914743589744,0.018,0.197,0.215,0.0914743589744
34120000,102.377124461,134.902331629,86.1145208769,0.755,0.199,0.5555,0.053,0.177,0.23,0.307840909091,0.053,0.177,0.23,0.307840909091,0.053,0.177,0.23,0.307840909091,0.053,0.172,0.225,0.316064593301,0.053,0.172,0.225,0.316064593301,0.053,0.172,0.225,0.316064593301
34120000,102.897482733,138.153518391,85.2694649043,0.779,0.2085,0.5625,0.01,0.191,0.201,0.051586886845,0.01,0.191,0.201,0.051586886845,0.01,0.191,0.201,0.051586886845,0.01,0.191,0.201,0.051586886845,0.01,0.189,0.199,0.0520397853958,0.01,0.189,0.199,0.0520397853958
34120000,103.326782575,146.243084458,81.8686316336,0.762,0.2795,0.5735,0.0245,0.272,0.2965,0.0892430225143,0.0165,0.272,0.2885,0.0629272330407,0.0165,0.272,0.2885,0.0629272330407,0.0165,0.272,0.2885,0.0629272330407,0.0165,0.272,0.2885,0.0629272330407,0.0165,0.272,0.2885,0.0629272330407
34120000,103.748376173,147.94985728,81.6476356198,0.7905,0.184,0.595,0.0225,0.181,0.2035,0.123950569358,0.0225,0.181,0.2035,0.123950569358,0.0225,0.181,0.2035,0.123950569358,0.0225,0.181,0.2035,0.123950569358,0.0225,0.181,0.2035,0.123950569358,0.0225,0.181,0.2035,0.123950569358
34120000,104.293755272,147.554093229,82.6635862942,0.7695,0.293,0.524,0.0265,0.2855,0.312,0.0988580929436,0.0265,0.2855,0.312,0.0988580929436,0.0265,0.2855,0.312,0.0988580929436,0.0265,0.2855,0.312,0.0988580929436,0.0265,0.2855,0.312,0.0988580929436,0.0265,0.2855,0.312,0.0988580929436
34120000,104.593949097,147.344073804,83.2188867438,0.781,0.2035,0.5815,0.018,0.203,0.221,0.0961571459941,0.016,0.203,0.219,0.0861571459941,0.016,0.203,0.219,0.0861571459941,0.016,0.203,0.219,0.0861571459941,0.016,0.201,0.217,0.0865738126608,0.016,0.201,0.217,0.0865738126608
34120000,105.625348845,137.172840092,89.8516032221,0.7385,0.2025,0.5335,0.0085,0.198,0.2065,0.0428605769231,0.0085,0.198,0.2065,0.0428605769231,0.0085,0.198,0.2065,0.0428605769231,0.0085,0.198,0.2065,0.0428605769231,0.0085,0.198,0.2065,0.0428605769231,0.0085,0.198,0.2065,0.0428605769231
34120000,106.054170756,142.447754132,87.8573790679,0.753,0.202,0.5525,0.016,0.1925,0.2085,0.083415203456,0.016,0.1925,0.2085,0.083415203456,0.016,0.1925,0.2085,0.083415203456,0.016,0.1925,0.2085,0.083415203456,0.016,0.1925,0.2085,0.083415203456,0.016,0.1925,0.2085,0.083415203456
34120000,106.173037441,139.034405193,89.7423535652,0.729,0.1905,0.531,0.011,0.1765,0.1875,0.0606047187462,0.011,0.1765,0.1875,0.0606047187462,0.011,0.1765,0.1875,0.0606047187462,0.01,0.1765,0.1865,0.0556047187462,0.01,0.1765,0.1865,0.0556047187462,0.01,0.1765,0.1865,0.0556047187462
34120000,106.209662373,141.473546507,88.577720306,0.747,0.1975,0.5455,0.011,0.1885,0.1995,0.0581023550725,0.011,0.1885,0.1995,0.0581023550725,0.011,0.1885,0.1995,0.0581023550725,0.011,0.1885,0.1995,0.0581023550725,0.011,0.1885,0.1995,0.0581023550725,0.011,0.1885,0.1995,0.0581023550725
34120000,107.764057464,140.827918211,91.2321270905,0.727,0.1985,0.5285,0.0085,0.189,0.1975,0.045009469697,0.0085,0.1885,0.197,0.0452359189723,0.0085,0.1885,0.197,0.0452359189723,0.0085,0.1865,0.195,0.045670701581,0.0085,0.1865,0.195,0.045670701581,0.0085,0.1865,0.195,0.045670701581
34120000,108.427179549,142.926096553,91.177721047,0.7355,0.204,0.5345,0.01,0.1965,0.2065,0.051848287582,0.01,0.1965,0.2065,0.051848287582,0.01,0.1965,0.2065,0.051848287582,0.01,0.1965,0.2065,0.051848287582,0.01,0.1965,0.2065,0.051848287582,0.01,0.1965,0.2065,0.051848287582
34120000,108.816301109,143.839979362,91.3044619833,0.753,0.206,0.552,0.0155,0.195,0.2105,0.0833653846154,0.0155,0.195,0.2105,0.0833653846154,0.0155,0.192,0.2075,0.0840472027972,0.0155,0.192,0.2075,0.0840472027972,0.0155,0.192,0.2075,0.0840472027972,0.0155,0.192,0.2075,0.0840472027972
34120000,109.922601313,145.405166111,92.1813189148,0.7275,0.199,0.5285,0.0135,0.1925,0.206,0.0704619565217,0.0135,0.1925,0.206,0.0704619565217,0.0135,0.1925,0.206,0.0704619565217,0.0135,0.1725,0.186,0.0814268688024,0.0135,0.1725,0.186,0.0814268688024,0.0135,0.1725,0.186,0.0814268688024
34160000,91.6456442574,135.083297973,69.9268173998,0.78,0.228,0.576,0.012,0.22,0.232,0.0604453870626,0.012,0.22,0.232,0.0604453870626,0.012,0.22,0.232,0.0604453870626,0.012,0.22,0.232,0.0604453870626,0.012,0.22,0.232,0.0604453870626,0.012,0.22,0.232,0.0604453870626
34160000,91.715148226,125.42482331,74.860310684,0.7415,0.199,0.5415,0.0355,0.1945,0.23,0.178908514493,0.0355,0.1945,0.23,0.178908514493,0.0355,0.1945,0.23,0.178908514493,0.0355,0.1945,0.23,0.178908514493,0.0355,0.1945,0.23,0.178908514493,0.0355,0.1945,0.23,0.178908514493
34160000,94.3645352951,137.987130651,72.553237617,0.7565,0.206,0.553,0.012,0.201,0.213,0.059017142278,0.01,0.201,0.211,0.0494017576626,0.01,0.201,0.211,0.0494017576626,0.01,0.201,0.211,0.0494017576626,0.01,0.201,0.211,0.0494017576626,0.01,0.201,0.211,0.0494017576626
34160000,94.4233014867,124.554782005,79.3575612276,0.7265,0.205,0.535,0.0115,0.202,0.2135,0.0578065774805,0.0115,0.202,0.2135,0.0578065774805,0.0115,0.202,0.2135,0.0578065774805,0.0115,0.202,0.2135,0.0578065774805,0.0115,0.202,0.2135,0.0578065774805,0.0115,0.202,0.2135,0.0578065774805
34160000,95.8541590099,138.042127435,74.7601747975,0.735,0.197,0.533,0.017,0.196,0.213,0.0866666666667,0.017,0.196,0.213,0.0866666666667,0.017,0.196,0.213,0.0866666666667,0.017,0.196,0.213,0.0866666666667,0.017,0.196,0.213,0.0866666666667,0.017,0.196,0.213,0.0866666666667
34160000,96.8240160689,140.864668134,74.8036900366,0.739,0.1965,0.5105,0.012,0.1945,0.2065,0.0626311188811,0.012,0.1945,0.2065,0.0626311188811,0.012,0.1945,0.2065,0.0626311188811,0.012,0.194,0.206,0.0627272727273,0.012,0.194,0.206,0.0627272727273,0.012,0.194,0.206,0.0627272727273
34160000,98.0503611294,137.40024019,78.375421599,0.7595,0.199,0.575,0.0105,0.193,0.2035,0.055827872547,0.0095,0.193,0.2025,0.0503930899383,0.0095,0.193,0.2025,0.0503930899383,0.0095,0.193,0.2025,0.0503930899383,0.0095,0.193,0.2025,0.0503930899383,0.0095,0.193,0.2025,0.0503930899383
34160000,98.3204716176,143.496937717,75.7322385681,0.7215,0.203,0.5285,0.008,0.196,0.204,0.0410209551657,0.008,0.196,0.204,0.0410209551657,0.008,0.196,0.204,0.0410209551657,0.008,0.196,0.204,0.0410209551657,0.008,0.196,0.204,0.0410209551657,0.008,0.196,0.204,0.0410209551657
34160000,104.589269164,149.816648116,81.9755796886,0.7,0.2005,0.505,0.015,0.186,0.201,0.0813446969697,0.015,0.186,0.201,0.0813446969697,0.015,0.186,0.201,0.0813446969697,0.015,0.186,0.201,0.0813446969697,0.015,0.186,0.201,0.0813446969697,0.015,0.186,0.201,0.0813446969697
34160000,104.92080632,150.429435761,82.1664915997,0.7055,0.191,0.5045,0.0215,0.187,0.2085,0.115397537245,0.0215,0.187,0.2085,0.115397537245,0.0215,0.187,0.2085,0.115397537245,0.0215,0.187,0.2085,0.115397537245,0.0215,0.187,0.2085,0.115397537245,0.0215,0.187,0.2085,0.115397537245
34160000,106.712791302,148.246791987,85.9457909592,0.7725,0.319,0.5015,0.0115,0.3155,0.327,0.0478367873069,0.0115,0.3155,0.327,0.0478367873069,0.0115,0.3155,0.327,0.0478367873069,0.0115,0.3155,0.327,0.0478367873069,0.0115,0.3155,0.327,0.0478367873069,0.0115,0.3155,0.327,0.0478367873069
34160000,107.386019627,150.33110052,85.9134791801,0.6695,0.225,0.4515,0.009,0.22,0.229,0.042097364308,0.009,0.22,0.229,0.042097364308,0.009,0.22,0.229,0.042097364308,0.009,0.22,0.229,0.042097364308,0.009,0.22,0.229,0.042097364308,0.009,0.22,0.229,0.042097364308
34200000,92.2196963602,136.184726576,70.2371812525,0.816,0.208,0.599,0.021,0.2065,0.2275,0.100896464646,0.021,0.2065,0.2275,0.100896464646,0.021,0.2065,0.2275,0.100896464646,0.017,0.2065,0.2235,0.0808964646465,0.009,0.2065,0.2155,0.0438594276094,0.009,0.2065,0.2155,0.0438594276094
34200000,94.0550737797,133.622639545,74.2712908969,0.751,0.1805,0.55,0.0125,0.1805,0.193,0.0688549632629,0.0125,0.1805,0.193,0.0688549632629,0.0125,0.1805,0.193,0.0688549632629,0.0125,0.1805,0.193,0.0688549632629,0.0125,0.1805,0.193,0.0688549632629,0.0125,0.1805,0.193,0.0688549632629
34200000,94.5037447137,139.320635864,72.0952991386,0.8165,0.219,0.596,0.02,0.219,0.239,0.0913658474142,0.02,0.219,0.239,0.0913658474142,0.019,0.219,0.238,0.0873335893497,0.019,0.219,0.238,0.0873335893497,0.019,0.215,0.234,0.0894703414865,0.019,0.215,0.234,0.0894703414865
34200000,94.7913441775,139.522987214,72.4255226594,0.78,0.227,0.558,0.04,0.2225,0.2625,0.178624749197,0.04,0.2225,0.2625,0.178624749197,0.04,0.2225,0.2625,0.178624749197,0.04,0.2225,0.2625,0.178624749197,0.02,0.2225,0.2425,0.0893390349113,0.02,0.2225,0.2425,0.0893390349113
34200000,95.7009688962,141.424776522,72.8390650835,0.809,0.2765,0.557,0.013,0.261,0.274,0.0567538126362,0.013,0.261,0.274,0.0567538126362,0.013,0.261,0.274,0.0567538126362,0.013,0.261,0.274,0.0567538126362,0.013,0.261,0.274,0.0567538126362,0.013,0.261,0.274,0.0567538126362
34200000,95.8932611779,140.662831559,73.5084759876,0.7975,0.221,0.586,0.0255,0.22,0.2455,0.115203373016,0.0255,0.22,0.2455,0.115203373016,0.0255,0.22,0.2455,0.115203373016,0.0255,0.22,0.2455,0.115203373016,0.0255,0.22,0.2455,0.115203373016,0.0255,0.22,0.2455,0.115203373016
34200000,96.5583342775,142.300467992,73.68726742,0.807,0.22,0.5855,0.0255,0.213,0.2385,0.11836038961,0.0255,0.213,0.2385,0.11836038961,0.0255,0.213,0.2385,0.11836038961,0.0255,0.213,0.2385,0.11836038961,0.0255,0.213,0.2385,0.11836038961,0.0255,0.213,0.2385,0.11836038961
34200000,96.5609716343,143.147326748,73.2677940775,0.8245,0.2185,0.6125,0.018,0.207,0.225,0.0866082875458,0.018,0.207,0.225,0.0866082875458,0.014,0.207,0.221,0.067377518315,0.014,0.207,0.221,0.067377518315,0.014,0.207,0.221,0.067377518315,0.014,0.207,0.221,0.067377518315
34200000,96.7874411618,143.332047543,73.5151379714,0.831,0.2095,0.6145,0.0165,0.196,0.2125,0.0833927133655,0.0165,0.188,0.2045,0.0886101046699,0.0165,0.188,0.2045,0.0886101046699,0.0165,0.188,0.2045,0.0886101046699,0.0165,0.188,0.2045,0.0886101046699,0.0165,0.188,0.2045,0.0886101046699
34200000,96.8686312749,140.732491411,74.9367012071,0.777,0.2175,0.5675,0.014,0.2075,0.2215,0.068303048602,0.014,0.2075,0.2215,0.068303048602,0.014,0.2075,0.2215,0.068303048602,0.014,0.2075,0.2215,0.068303048602,0.014,0.2075,0.2215,0.068303048602,0.014,0.2075,0.2215,0.068303048602
34200000,97.076437633,142.027425365,74.6009437671,0.7845,0.221,0.563,0.0125,0.2195,0.232,0.0586925901366,0.0125,0.2195,0.232,0.0586925901366,0.0125,0.2195,0.232,0.0586925901366,0.0125,0.2195,0.232,0.0586925901366,0.0125,0.2195,0.232,0.0586925901366,0.0125,0.2195,0.232,0.0586925901366
34200000,97.0986605147,142.085557964,74.6052117899,0.7265,0.163,0.537,0.0105,0.154,0.1645,0.0697622863248,0.0105,0.154,0.1645,0.0697622863248,0.0105,0.154,0.1645,0.0697622863248,0.0105,0.154,0.1645,0.0697622863248,0.0105,0.154,0.1645,0.0697622863248,0.0105,0.154,0.1645,0.0697622863248
34200000,97.4631024386,144.292674036,74.0483166401,0.825,0.2225,0.606,0.015,0.2205,0.2355,0.068039021164,0.015,0.2205,0.2355,0.068039021164,0.015,0.2205,0.2355,0.068039021164,0.015,0.2205,0.2355,0.068039021164,0.015,0.2205,0.2355,0.068039021164,0.015,0.2205,0.2355,0.068039021164
34200000,97.8499376666,143.802004583,74.8739042086,0.7995,0.219,0.583,0.0215,0.205,0.2265,0.105674603175,0.0215,0.205,0.2265,0.105674603175,0.0215,0.205,0.2265,0.105674603175,0.0195,0.205,0.2245,0.096746031746,0.0195,0.205,0.2245,0.096746031746,0.0195,0.205,0.2245,0.096746031746
34200000,97.9638667538,137.147352852,78.3721237045,0.7095,0.2185,0.518,0.0085,0.204,0.2125,0.0420508658009,0.0085,0.204,0.2125,0.0420508658009,0.0085,0.204,0.2125,0.0420508658009,0.0085,0.204,0.2125,0.0420508658009,0.0085,0.204,0.2125,0.0420508658009,0.0085,0.204,0.2125,0.0420508658009
34200000,98.0348206368,144.748599513,74.677931199,0.7985,0.2235,0.5775,0.0355,0.214,0.2495,0.168183547115,0.0355,0.214,0.2495,0.168183547115,0.0355,0.214,0.2495,0.168183547115,0.0355,0.214,0.2495,0.168183547115,0.0355,0.214,0.2495,0.168183547115,0.0355,0.214,0.2495,0.168183547115
34200000,98.7557067723,145.311868212,75.4776260522,0.784,0.2125,0.565,0.0125,0.209,0.2215,0.05974002849,0.0125,0.209,0.2215,0.05974002849,0.0125,0.209,0.2215,0.05974002849,0.0125,0.2085,0.221,0.0600284900285,0.0105,0.2085,0.219,0.0504131054131,0.0105,0.2085,0.219,0.0504131054131
34200000,98.8297803778,146.572724243,74.9583084452,0.8255,0.2205,0.607,0.0105,0.219,0.2295,0.0487301587302,0.0105,0.219,0.2295,0.0487301587302,0.0105,0.219,0.2295,0.0487301587302,0.0105,0.219,0.2295,0.0487301587302,0.0105,0.219,0.2295,0.0487301587302,0.0105,0.219,0.2295,0.0487301587302
34200000,98.9078216148,144.417624717,76.1529200635,0.7865,0.2225,0.561,0.0175,0.2185,0.236,0.0791693582319,0.0175,0.2185,0.236,0.0791693582319,0.0175,0.2185,0.236,0.0791693582319,0.0175,0.2185,0.236,0.0791693582319,0.0175,0.2185,0.236,0.0791693582319,0.0175,0.2185,0.236,0.0791693582319
34200000,99.1249422263,144.457924788,76.4584509458,0.778,0.2145,0.561,0.009,0.207,0.216,0.0439066951567,0.009,0.206,0.215,0.0446169224294,0.009,0.206,0.215,0.0446169224294,0.009,0.206,0.215,0.0446169224294,0.009,0.206,0.215,0.0446169224294,0.009,0.206,0.215,0.0446169224294
34200000,99.724920449,147.231663927,75.9715487098,0.824,0.221,0.605,0.0135,0.2175,0.231,0.0626683964184,0.011,0.2175,0.2285,0.0510943223443,0.011,0.2175,0.2285,0.0510943223443,0.011,0.2175,0.2285,0.0510943223443,0.011,0.2175,0.2285,0.0510943223443,0.011,0.2175,0.2285,0.0510943223443
34200000,99.7414023962,145.061968135,77.0811195269,0.7975,0.2175,0.5765,0.0105,0.2085,0.219,0.0511536470776,0.0105,0.2075,0.218,0.0514006826507,0.0105,0.2075,0.218,0.0514006826507,0.0105,0.2075,0.218,0.0514006826507,0.0105,0.2075,0.218,0.0514006826507,0.0105,0.2075,0.218,0.0514006826507
34200000,100.154178767,147.405368873,76.5285837143,0.795,0.219,0.577,0.0175,0.217,0.2345,0.0819342694343,0.0175,0.217,0.2345,0.0819342694343,0.0175,0.217,0.2345,0.0819342694343,0.0175,0.217,0.2345,0.0819342694343,0.0175,0.217,0.2345,0.0819342694343,0.0175,0.217,0.2345,0.0819342694343
34200000,100.518553428,148.950055495,76.302802395,0.814,0.216,0.5985,0.024,0.2095,0.2335,0.11262104067,0.024,0.2095,0.2335,0.11262104067,0.024,0.2095,0.2335,0.11262104067,0.0235,0.2095,0.233,0.11012104067,0.0235,0.2095,0.233,0.11012104067,0.0235,0.2095,0.233,0.11012104067
34200000,100.975966091,147.327192285,77.8003529942,0.802,0.237,0.577,0.019,0.226,0.245,0.0841641426218,0.019,0.226,0.245,0.0841641426218,0.017,0.226,0.243,0.0749048833626,0.016,0.226,0.242,0.0702752537329,0.016,0.226,0.242,0.0702752537329,0.016,0.226,0.242,0.0702752537329
34200000,101.004834999,147.945197152,77.5346539222,0.7935,0.217,0.5815,0.024,0.2,0.224,0.120799501425,0.0235,0.2,0.2235,0.118395655271,0.0235,0.185,0.2085,0.130879120879,0.0235,0.185,0.2085,0.130879120879,0.0235,0.185,0.2085,0.130879120879,0.0235,0.185,0.2085,0.130879120879
34200000,101.045561838,137.662557342,82.737064086,0.683,0.197,0.49,0.017,0.1945,0.2115,0.0854597169135,0.017,0.1945,0.2115,0.0854597169135,0.017,0.1945,0.2115,0.0854597169135,0.016,0.1945,0.2105,0.0809954311992,0.016,0.1945,0.2105,0.0809954311992,0.016,0.1945,0.2105,0.0809954311992
34200000,101.391631101,146.391531169,78.8916810669,0.753,0.2165,0.533,0.02,0.2035,0.2235,0.101379941897,0.02,0.2035,0.2235,0.101379941897,0.02,0.2035,0.2235,0.101379941897,0.02,0.203,0.223,0.101572249589,0.02,0.203,0.223,0.101572249589,0.02,0.203,0.223,0.101572249589
34200000,101.460362819,147.755820399,78.3126340284,0.7945,0.202,0.5795,0.014,0.1985,0.2125,0.0703731684982,0.014,0.1985,0.2125,0.0703731684982,0.014,0.1985,0.2125,0.0703731684982,0.014,0.1965,0.2105,0.0720398351648,0.014,0.1945,0.2085,0.0724404761905,0.014,0.1945,0.2085,0.0724404761905
34200000,101.563191199,147.287418309,78.7010776439,0.8015,0.2045,0.5915,0.0155,0.2005,0.216,0.078598519536,0.0155,0.2005,0.216,0.078598519536,0.0155,0.2005,0.216,0.078598519536,0.015,0.2005,0.2155,0.0737908272283,0.014,0.2005,0.2145,0.069326541514,0.014,0.2005,0.2145,0.069326541514
34200000,101.583368947,149.208237476,77.7709346826,0.7475,0.206,0.5415,0.0135,0.198,0.2115,0.0671709656085,0.0135,0.198,0.2115,0.0671709656085,0.0135,0.198,0.2115,0.0671709656085,0.0135,0.198,0.2115,0.0671709656085,0.0135,0.1975,0.211,0.0673974148838,0.0135,0.1975,0.211,0.0673974148838
34200000,102.135223419,148.828481855,78.7885942009,0.809,0.2165,0.588,0.0105,0.2055,0.216,0.0514271504358,0.0105,0.2055,0.216,0.0514271504358,0.0105,0.2055,0.216,0.0514271504358,0.0105,0.2055,0.216,0.0514271504358,0.0105,0.2055,0.216,0.0514271504358,0.0105,0.2055,0.216,0.0514271504358
34200000,102.225682472,148.578249078,79.0493991686,0.757,0.2015,0.5515,0.015,0.194,0.209,0.0773237179487,0.015,0.194,0.209,0.0773237179487,0.015,0.194,0.209,0.0773237179487,0.015,0.193,0.208,0.0780030657748,0.013,0.193,0.206,0.0671335005574,0.013,0.193,0.206,0.0671335005574
34200000,102.233802418,146.452560044,80.1244236051,0.7645,0.279,0.5215,0.0175,0.27,0.2875,0.0768086080586,0.0175,0.27,0.2875,0.0768086080586,0.0175,0.27,0.2875,0.0768086080586,0.0175,0.27,0.2875,0.0768086080586,0.0175,0.27,0.2875,0.0768086080586,0.0175,0.27,0.2875,0.0768086080586
34200000,102.288939885,149.039595839,78.9136119078,0.8075,0.223,0.5885,0.0085,0.218,0.2265,0.0391165547416,0.0085,0.218,0.2265,0.0391165547416,0.0085,0.218,0.2265,0.0391165547416,0.0085,0.214,0.2225,0.0398288054538,0.0085,0.214,0.2225,0.0398288054538,0.0085,0.214,0.2225,0.0398288054538
34200000,102.408044454,148.557523226,79.3333050684,0.808,0.2175,0.5945,0.01,0.208,0.218,0.0485027472527,0.01,0.208,0.218,0.0485027472527,0.01,0.208,0.218,0.0485027472527,0.01,0.208,0.218,0.0485027472527,0.01,0.208,0.218,0.0485027472527,0.01,0.208,0.218,0.0485027472527
34200000,102.597619829,148.561989339,79.6154350743,0.806,0.251,0.5855,0.0305,0.244,0.2745,0.127221713472,0.0305,0.244,0.2745,0.127221713472,0.0305,0.244,0.2745,0.127221713472,0.0305,0.244,0.2745,0.127221713472,0.0305,0.244,0.2745,0.127221713472,0.0305,0.244,0.2745,0.127221713472
34200000,102.778408872,149.250836703,79.5421949569,0.7895,0.2155,0.578,0.0125,0.213,0.2255,0.0580125661376,0.0125,0.213,0.2255,0.0580125661376,0.0125,0.213,0.2255,0.0580125661376,0.0125,0.213,0.2255,0.0580125661376,0.0125,0.213,0.2255,0.0580125661376,0.0125,0.213,0.2255,0.0580125661376
34200000,103.257790437,149.526564112,80.1234035993,0.7635,0.208,0.565,0.0265,0.202,0.2285,0.131998327759,0.0265,0.202,0.2285,0.131998327759,0.0265,0.202,0.2285,0.131998327759,0.0245,0.202,0.2265,0.122382943144,0.0245,0.202,0.2265,0.122382943144,0.0245,0.202,0.2265,0.122382943144
34200000,103.451661367,148.284603172,81.035190464,0.7775,0.227,0.56,0.0175,0.218,0.2355,0.0820238095238,0.0175,0.218,0.2355,0.0820238095238,0.0175,0.218,0.2355,0.0820238095238,0.0175,0.218,0.2355,0.0820238095238,0.0175,0.218,0.2355,0.0820238095238,0.0175,0.218,0.2355,0.0820238095238
34200000,103.50197358,149.456229452,80.5248456442,0.7665,0.2115,0.555,0.022,0.202,0.224,0.106884057971,0.022,0.202,0.224,0.106884057971,0.021,0.202,0.223,0.102254428341,0.021,0.202,0.223,0.102254428341,0.021,0.202,0.223,0.102254428341,0.021,0.202,0.223,0.102254428341
34200000,103.828469262,149.542692328,80.9713577283,0.7955,0.2135,0.5765,0.0105,0.2045,0.215,0.0513995726496,0.0105,0.2045,0.215,0.0513995726496,0.0105,0.2045,0.215,0.0513995726496,0.0105,0.2045,0.215,0.0513995726496,0.0105,0.2045,0.215,0.0513995726496,0.0105,0.2045,0.215,0.0513995726496
34200000,104.005442156,149.516761295,81.249782587,0.783,0.2215,0.561,0.02,0.2055,0.2255,0.0969742063492,0.02,0.2055,0.2255,0.0969742063492,0.02,0.2055,0.2255,0.0969742063492,0.02,0.2055,0.2255,0.0969742063492,0.02,0.2055,0.2255,0.0969742063492,0.02,0.2055,0.2255,0.0969742063492
34200000,104.076128414,148.869853143,81.6792660495,0.768,0.214,0.5585,0.0145,0.2075,0.222,0.0698148148148,0.0145,0.2075,0.222,0.0698148148148,0.0145,0.2075,0.222,0.0698148148148,0.0145,0.2075,0.222,0.0698148148148,0.0145,0.2075,0.222,0.0698148148148,0.0145,0.2075,0.222,0.0698148148148
34200000,104.275385018,149.608132091,81.609011482,0.757,0.2095,0.548,0.018,0.206,0.224,0.0870803914282,0.018,0.206,0.224,0.0870803914282,0.018,0.206,0.224,0.0870803914282,0.018,0.206,0.224,0.0870803914282,0.018,0.206,0.224,0.0870803914282,0.016,0.206,0.222,0.077821132169
34200000,104.346610814,149.506470302,81.7666810697,0.777,0.2115,0.575,0.0105,0.2085,0.219,0.0495467032967,0.0105,0.2085,0.219,0.0495467032967,0.0105,0.2085,0.219,0.0495467032967,0.0105,0.208,0.2185,0.0496508699634,0.0105,0.208,0.2185,0.0496508699634,0.0105,0.208,0.2185,0.0496508699634
34200000,105.192121705,149.501524493,83.0374203114,0.7655,0.209,0.557,0.015,0.199,0.214,0.0748157051282,0.015,0.197,0.212,0.0752686036789,0.015,0.197,0.212,0.0752686036789,0.015,0.197,0.212,0.0752686036789,0.015,0.197,0.212,0.0752686036789,0.015,0.197,0.212,0.0752686036789
34200000,105.565672464,149.497307413,83.5998549891,0.77,0.2125,0.561,0.0085,0.1895,0.198,0.0459189946882,0.0085,0.1895,0.198,0.0459189946882,0.0085,0.1895,0.198,0.0459189946882,0.0085,0.1895,0.198,0.0459189946882,0.0085,0.1895,0.198,0.0459189946882,0.0085,0.1895,0.198,0.0459189946882
34200000,106.547501894,149.45221134,85.0951471717,0.81,0.216,0.531,0.013,0.207,0.22,0.061757048826,0.013,0.207,0.22,0.061757048826,0.013,0.207,0.22,0.061757048826,0.013,0.207,0.22,0.061757048826,0.013,0.207,0.22,0.061757048826,0.013,0.207,0.22,0.061757048826
34240000,99.1231270384,144.472769535,76.4483057901,0.709,0.1985,0.507,0.012,0.191,0.203,0.0620170454545,0.012,0.191,0.203,0.0620170454545,0.012,0.191,0.203,0.0620170454545,0.012,0.191,0.203,0.0620170454545,0.012,0.191,0.203,0.0620170454545,0.012,0.191,0.203,0.0620170454545
34240000,100.329875248,147.470425108,76.7596003175,0.7225,0.206,0.5215,0.0275,0.205,0.2325,0.133950320513,0.0275,0.205,0.2325,0.133950320513,0.0275,0.205,0.2325,0.133950320513,0.0275,0.205,0.2325,0.133950320513,0.0275,0.205,0.2325,0.133950320513,0.0275,0.205,0.2325,0.133950320513
34240000,102.613276432,149.466302595,79.186763351,0.6975,0.207,0.49,0.0185,0.201,0.2195,0.0937248168498,0.0185,0.201,0.2195,0.0937248168498,0.0185,0.201,0.2195,0.0937248168498,0.0185,0.201,0.2195,0.0937248168498,0.0185,0.199,0.2175,0.0953914835165,0.0185,0.199,0.2175,0.0953914835165
34240000,102.644178222,148.388104944,79.7722148604,0.6755,0.374,0.4605,0.017,0.367,0.384,0.0700353887077,0.017,0.367,0.384,0.0700353887077,0.017,0.367,0.384,0.0700353887077,0.017,0.367,0.384,0.0700353887077,0.017,0.367,0.384,0.0700353887077,0.017,0.367,0.384,0.0700353887077
34240000,102.883370482,148.53016659,80.0599724283,0.712,0.212,0.508,0.02,0.212,0.232,0.0947293447293,0.02,0.212,0.232,0.0947293447293,0.02,0.212,0.232,0.0947293447293,0.02,0.212,0.232,0.0947293447293,0.02,0.212,0.232,0.0947293447293,0.02,0.212,0.232,0.0947293447293
34240000,103.613670187,150.066309755,80.3873504031,0.7005,0.197,0.496,0.017,0.1825,0.1995,0.0935047289667,0.017,0.1825,0.1995,0.0935047289667,0.017,0.1825,0.1995,0.0935047289667,0.017,0.1825,0.1995,0.0935047289667,0.017,0.1825,0.1995,0.0935047289667,0.017,0.1825,0.1995,0.0935047289667
34240000,103.655638747,147.861158975,81.5528786325,0.645,0.152,0.4385,0.0205,0.1225,0.143,0.211872831116,0.0205,0.1225,0.143,0.211872831116,0.0205,0.1225,0.143,0.211872831116,0.0205,0.1225,0.143,0.211872831116,0.0205,0.1225,0.143,0.211872831116,0.0205,0.1225,0.143,0.211872831116
34240000,104.068223881,149.59909398,81.3027888317,0.6825,0.1925,0.494,0.01,0.189,0.199,0.0518774703557,0.01,0.189,0.199,0.0518774703557,0.01,0.1875,0.1975,0.0522850790514,0.01,0.1875,0.1975,0.0522850790514,0.01,0.1875,0.1975,0.0522850790514,0.01,0.1875,0.1975,0.0522850790514
34240000,104.308937986,149.260705931,81.8330540129,0.682,0.2225,0.44,0.013,0.22,0.233,0.0649309543342,0.013,0.22,0.233,0.0649309543342,0.013,0.22,0.233,0.0649309543342,0.013,0.22,0.233,0.0649309543342,0.013,0.22,0.233,0.0649309543342,0.013,0.22,0.233,0.0649309543342
34240000,104.568022635,149.51368248,82.0951927125,0.701,0.19,0.4635,0.0155,0.1795,0.195,0.0877083333333,0.0155,0.1795,0.195,0.0877083333333,0.0155,0.1795,0.195,0.0877083333333,0.0155,0.1795,0.195,0.0877083333333,0.0155,0.1795,0.195,0.0877083333333,0.0155,0.1795,0.195,0.0877083333333
34240000,106.001004706,150.064919835,83.9690471413,0.673,0.1955,0.4805,0.016,0.189,0.205,0.084143166616,0.016,0.189,0.205,0.084143166616,0.016,0.189,0.205,0.084143166616,0.016,0.189,0.205,0.084143166616,0.016,0.189,0.205,0.084143166616,0.016,0.189,0.205,0.084143166616
34240000,106.827830903,150.024233893,85.229629407,0.6645,0.2,0.468,0.038,0.196,0.234,0.193937430323,0.038,0.196,0.234,0.193937430323,0.038,0.196,0.234,0.193937430323,0.038,0.196,0.234,0.193937430323,0.038,0.196,0.234,0.193937430323,0.038,0.196,0.234,0.193937430323
34480000,96.5054774574,140.51366048,74.5013859464,0.742,0.174,0.582,0.017,0.1695,0.1865,0.0950245029729,0.017,0.1695,0.1865,0.0950245029729,0.017,0.1695,0.1865,0.0950245029729,0.017,0.1695,0.1865,0.0950245029729,0.017,0.1695,0.1865,0.0950245029729,0.017,0.1695,0.1865,0.0950245029729
34480000,98.7032300264,145.577356961,75.2661665593,0.7675,0.201,0.5735,0.012,0.1925,0.2045,0.0617045454545,0.012,0.1925,0.2045,0.0617045454545,0.012,0.1925,0.2045,0.0617045454545,0.012,0.1925,0.2045,0.0617045454545,0.012,0.1925,0.2045,0.0617045454545,0.012,0.1925,0.2045,0.0617045454545
34480000,98.9625535612,148.724323228,74.0816687278,0.8175,0.203,0.6155,0.014,0.1875,0.2015,0.0760704541454,0.014,0.1875,0.2015,0.0760704541454,0.014,0.1875,0.2015,0.0760704541454,0.014,0.1815,0.1955,0.0843930525996,0.014,0.1815,0.1955,0.0843930525996,0.014,0.1815,0.1955,0.0843930525996
34480000,99.5522031689,149.301797063,74.6774062221,0.7955,0.1985,0.5985,0.0225,0.198,0.2205,0.11266025641,0.0225,0.198,0.2205,0.11266025641,0.0225,0.198,0.2205,0.11266025641,0.0225,0.198,0.2205,0.11266025641,0.0225,0.198,0.2205,0.11266025641,0.0225,0.198,0.2205,0.11266025641
34480000,99.5731952689,147.919908206,75.3998388002,0.8185,0.195,0.613,0.0305,0.1905,0.221,0.163257069018,0.0145,0.1905,0.205,0.0763005472788,0.0145,0.1905,0.205,0.0763005472788,0.0145,0.1905,0.205,0.0763005472788,0.0145,0.1905,0.205,0.0763005472788,0.0145,0.1905,0.205,0.0763005472788
34480000,99.7940286103,149.02113002,75.1804779056,0.781,0.1955,0.583,0.0125,0.1885,0.201,0.0658119235837,0.0125,0.1885,0.201,0.0658119235837,0.0125,0.1885,0.201,0.0658119235837,0.0125,0.1765,0.189,0.0696482407192,0.0125,0.1765,0.189,0.0696482407192,0.0125,0.1765,0.189,0.0696482407192
34480000,100.108081648,150.01076942,75.1567377621,0.8085,0.1985,0.6045,0.024,0.1965,0.2205,0.1215625,0.024,0.1965,0.2205,0.1215625,0.024,0.1965,0.2205,0.1215625,0.024,0.1965,0.2205,0.1215625,0.024,0.1965,0.2205,0.1215625,0.024,0.1965,0.2205,0.1215625
34480000,100.216905825,149.165404475,75.7426565002,0.772,0.197,0.57,0.0145,0.194,0.2085,0.0738158761528,0.0145,0.194,0.2085,0.0738158761528,0.0145,0.194,0.2085,0.0738158761528,0.0145,0.194,0.2085,0.0738158761528,0.0145,0.194,0.2085,0.0738158761528,0.0145,0.194,0.2085,0.0738158761528
34480000,100.539669848,146.777491946,77.4207587997,0.8665,0.3195,0.625,0.0165,0.317,0.3335,0.0619444482765,0.0165,0.317,0.3335,0.0619444482765,0.0165,0.317,0.3335,0.0619444482765,0.0165,0.317,0.3335,0.0619444482765,0.0165,0.313,0.3295,0.0625542043741,0.0165,0.313,0.3295,0.0625542043741
34480000,100.692919021,149.485148663,76.2968041998,0.772,0.189,0.571,0.02,0.188,0.208,0.106956521739,0.02,0.188,0.208,0.106956521739,0.012,0.188,0.2,0.0634782608696,0.012,0.188,0.2,0.0634782608696,0.012,0.188,0.2,0.0634782608696,0.012,0.188,0.2,0.0634782608696
34480000,101.001108629,149.835750349,76.5837877693,0.7815,0.193,0.584,0.0135,0.192,0.2055,0.0703125,0.0135,0.192,0.2055,0.0703125,0.0135,0.192,0.2055,0.0703125,0.0135,0.192,0.2055,0.0703125,0.0135,0.192,0.2055,0.0703125,0.0135,0.192,0.2055,0.0703125
34480000,101.085352377,149.979497593,76.6382797682,0.782,0.1985,0.5835,0.0255,0.1965,0.222,0.1284375,0.0255,0.1965,0.222,0.1284375,0.0255,0.1965,0.222,0.1284375,0.0255,0.1965,0.222,0.1284375,0.0255,0.1925,0.218,0.129384469697,0.0255,0.1925,0.218,0.129384469697
34480000,101.101326197,150.076772654,76.6136029688,0.814,0.2,0.614,0.022,0.1975,0.2195,0.111843297101,0.022,0.1975,0.2195,0.111843297101,0.022,0.1975,0.2195,0.111843297101,0.022,0.1975,0.2195,0.111843297101,0.022,0.1975,0.2195,0.111843297101,0.022,0.1975,0.2195,0.111843297101
34480000,101.143512081,149.806567845,76.8119841992,0.8675,0.2205,0.651,0.01,0.2125,0.2225,0.0482734857735,0.01,0.2125,0.2225,0.0482734857735,0.01,0.2125,0.2225,0.0482734857735,0.01,0.2125,0.2225,0.0482734857735,0.01,0.2125,0.2225,0.0482734857735,0.01,0.2125,0.2225,0.0482734857735
34480000,101.172031103,150.078238322,76.7189274941,0.793,0.195,0.5955,0.012,0.1855,0.1975,0.0651850414079,0.012,0.1855,0.1975,0.0651850414079,0.012,0.1855,0.1975,0.0651850414079,0.01,0.1855,0.1955,0.0532802795031,0.01,0.1855,0.1955,0.0532802795031,0.01,0.1855,0.1955,0.0532802795031
34480000,101.573104498,149.968986337,77.3751635788,0.7825,0.2,0.5825,0.0135,0.182,0.1955,0.0743037714097,0.0135,0.182,0.1955,0.0743037714097,0.0135,0.182,0.1955,0.0743037714097,0.0135,0.182,0.1955,0.0743037714097,0.0135,0.182,0.1955,0.0743037714097,0.0135,0.182,0.1955,0.0743037714097
34480000,101.752735281,150.027647541,77.6152791514,0.773,0.2045,0.569,0.0105,0.2035,0.214,0.0521634615385,0.0105,0.2035,0.214,0.0521634615385,0.0105,0.2035,0.214,0.0521634615385,0.0105,0.2035,0.214,0.0521634615385,0.0105,0.2035,0.214,0.0521634615385,0.0105,0.2035,0.214,0.0521634615385
34480000,102.284182034,149.978051001,78.4372475506,0.806,0.1925,0.6055,0.0115,0.188,0.1995,0.0609420289855,0.0115,0.188,0.1995,0.0609420289855,0.0115,0.188,0.1995,0.0609420289855,0.0115,0.188,0.1995,0.0609420289855,0.0115,0.188,0.1995,0.0609420289855,0.0115,0.188,0.1995,0.0609420289855
34480000,102.466834532,150.157185236,78.6216591802,0.8,0.195,0.5975,0.016,0.1885,0.2045,0.0868445322793,0.016,0.1885,0.2045,0.0868445322793,0.016,0.1885,0.2045,0.0868445322793,0.016,0.1885,0.2045,0.0868445322793,0.016,0.1885,0.2045,0.0868445322793,0.016,0.1885,0.2045,0.0868445322793
34480000,102.501370977,150.337564537,78.5832741976,0.804,0.197,0.602,0.0335,0.1905,0.224,0.171812888199,0.0335,0.1905,0.224,0.171812888199,0.0335,0.1905,0.224,0.171812888199,0.0335,0.1905,0.224,0.171812888199,0.0235,0.1905,0.214,0.121812888199,0.0235,0.1845,0.208,0.127267433653
34480000,102.747594939,150.081467805,79.0806585068,0.7815,0.1995,0.578,0.0185,0.1855,0.204,0.0995606884058,0.0185,0.1855,0.204,0.0995606884058,0.0185,0.1855,0.204,0.0995606884058,0.0185,0.1855,0.204,0.0995606884058,0.0185,0.1855,0.204,0.0995606884058,0.0185,0.1855,0.204,0.0995606884058
34480000,102.878341309,150.138411543,79.2483061927,0.796,0.1965,0.593,0.0305,0.178,0.2085,0.167152459954,0.0305,0.178,0.2085,0.167152459954,0.0305,0.178,0.2085,0.167152459954,0.0305,0.178,0.2085,0.167152459954,0.0305,0.17,0.2005,0.170661231884,0.0305,0.17,0.2005,0.170661231884
34480000,103.629939818,150.230005734,80.3299068598,0.7745,0.203,0.5785,0.0225,0.1885,0.211,0.117064819239,0.0225,0.1885,0.211,0.117064819239,0.0225,0.1885,0.211,0.117064819239,0.0145,0.1885,0.203,0.0753981525721,0.0145,0.1885,0.203,0.0753981525721,0.0145,0.1885,0.203,0.0753981525721
34480000,104.115903427,150.270519216,81.0385955324,0.807,0.202,0.591,0.014,0.202,0.216,0.0696296296296,0.014,0.202,0.216,0.0696296296296,0.014,0.202,0.216,0.0696296296296,0.014,0.2,0.214,0.070462962963,0.014,0.2,0.214,0.070462962963,0.014,0.2,0.214,0.070462962963
34480000,104.751063171,146.671399421,83.7908950462,0.737,0.203,0.541,0.0105,0.2025,0.213,0.0525801282051,0.0105,0.2025,0.213,0.0525801282051,0.0105,0.2025,0.213,0.0525801282051,0.0105,0.2005,0.211,0.0530563186813,0.0105,0.2005,0.211,0.0530563186813,0.0105,0.2005,0.211,0.0530563186813
34480000,104.873225109,150.318718091,82.1504786177,0.807,0.208,0.595,0.0135,0.1995,0.213,0.0677083333333,0.0135,0.1995,0.213,0.0677083333333,0.0135,0.1995,0.213,0.0677083333333,0.0135,0.1995,0.213,0.0677083333333,0.0135,0.1995,0.213,0.0677083333333,0.0135,0.1995,0.213,0.0677083333333
34480000,104.887149338,149.257050188,82.7021989135,0.667,0.213,0.4455,0.0165,0.207,0.2235,0.0802543310152,0.0165,0.207,0.2235,0.0802543310152,0.0165,0.207,0.2235,0.0802543310152,0.0165,0.207,0.2235,0.0802543310152,0.0165,0.207,0.2235,0.0802543310152,0.0165,0.207,0.2235,0.0802543310152
34480000,105.294647646,147.796135779,84.0439035796,0.723,0.19,0.5335,0.011,0.18,0.191,0.0606439393939,0.011,0.18,0.191,0.0606439393939,0.011,0.18,0.191,0.0606439393939,0.011,0.18,0.191,0.0606439393939,0.011,0.18,0.191,0.0606439393939,0.011,0.18,0.191,0.0606439393939
34480000,105.714679191,150.337257514,83.4033900298,0.7695,0.205,0.564,0.0345,0.2,0.2345,0.172219551282,0.0345,0.2,0.2345,0.172219551282,0.0345,0.2,0.2345,0.172219551282,0.0305,0.1995,0.23,0.15233277592,0.0305,0.1935,0.224,0.157749442586,0.0305,0.1935,0.224,0.157749442586
34480000,106.034551878,150.377569049,83.8630432918,0.798,0.3,0.544,0.0365,0.282,0.3185,0.118749303233,0.0365,0.282,0.3185,0.118749303233,0.0365,0.282,0.3185,0.118749303233,0.0365,0.282,0.3185,0.118749303233,0.0365,0.282,0.3185,0.118749303233,0.0365,0.282,0.3185,0.118749303233
34600000,95.3734994028,138.96500851,73.5777448494,0.7785,0.178,0.591,0.0265,0.1585,0.185,0.166666666667,0.0265,0.1585,0.185,0.166666666667,0.0265,0.1585,0.185,0.166666666667,0.0265,0.1585,0.185,0.166666666667,0.0265,0.1585,0.185,0.166666666667,0.0265,0.1585,0.185,0.166666666667
34600000,95.8393665287,140.250454492,73.6338225472,0.792,0.191,0.602,0.0125,0.189,0.2015,0.0680854743083,0.0125,0.189,0.2015,0.0680854743083,0.0125,0.189,0.2015,0.0680854743083,0.0125,0.189,0.2015,0.0680854743083,0.0125,0.189,0.2015,0.0680854743083,0.0125,0.189,0.2015,0.0680854743083
34600000,96.2857948925,140.569902181,74.1437412482,0.7965,0.187,0.5985,0.009,0.1835,0.1925,0.0490630293619,0.009,0.1835,0.1925,0.0490630293619,0.009,0.1835,0.1925,0.0490630293619,0.009,0.1835,0.1925,0.0490630293619,0.009,0.1835,0.1925,0.0490630293619,0.009,0.1835,0.1925,0.0490630293619
34600000,96.8761504498,141.280396475,74.6740274374,0.7615,0.1905,0.574,0.0155,0.179,0.1945,0.0890454169845,0.0155,0.179,0.1945,0.0890454169845,0.0155,0.179,0.1945,0.0890454169845,0.0155,0.179,0.1945,0.0890454169845,0.0155,0.179,0.1945,0.0890454169845,0.0155,0.179,0.1945,0.0890454169845
34600000,97.0806059543,140.562527048,75.3396454074,0.7745,0.1595,0.5735,0.023,0.1525,0.1755,0.171742424242,0.023,0.1525,0.1755,0.171742424242,0.023,0.1525,0.1755,0.171742424242,0.011,0.1525,0.1635,0.0717424242424,0.011,0.1525,0.1635,0.0717424242424,0.011,0.1525,0.1635,0.0717424242424
34600000,97.5702379841,142.023782906,75.3434655233,0.7815,0.19,0.594,0.0135,0.1655,0.179,0.0811593377383,0.0135,0.1655,0.179,0.0811593377383,0.0135,0.1655,0.179,0.0811593377383,0.0135,0.1655,0.179,0.0811593377383,0.0135,0.1655,0.179,0.0811593377383,0.0135,0.1655,0.179,0.0811593377383
34600000,97.6496118537,141.476881516,75.7359770226,0.76,0.183,0.578,0.0135,0.1795,0.193,0.0757411067194,0.0135,0.1795,0.193,0.0757411067194,0.0135,0.1795,0.193,0.0757411067194,0.0135,0.1795,0.193,0.0757411067194,0.0135,0.1795,0.193,0.0757411067194,0.0135,0.1795,0.193,0.0757411067194
34600000,97.6612305366,141.560866357,75.7114126262,0.763,0.1895,0.5765,0.021,0.17,0.191,0.12766798419,0.021,0.17,0.191,0.12766798419,0.021,0.17,0.191,0.12766798419,0.021,0.17,0.191,0.12766798419,0.021,0.17,0.191,0.12766798419,0.021,0.17,0.191,0.12766798419
34600000,97.8049313201,142.10093805,75.6569279551,0.7565,0.188,0.573,0.0155,0.184,0.1995,0.0839200428195,0.0155,0.184,0.1995,0.0839200428195,0.015,0.184,0.199,0.0813158761528,0.015,0.184,0.199,0.0813158761528,0.015,0.184,0.199,0.0813158761528,0.015,0.184,0.199,0.0813158761528
34600000,97.8355844351,143.443326337,75.0317134839,0.7615,0.18,0.58,0.0105,0.1755,0.186,0.0615004036772,0.0105,0.1755,0.186,0.0615004036772,0.0095,0.1755,0.185,0.0549214563088,0.0095,0.1755,0.185,0.0549214563088,0.0095,0.1755,0.185,0.0549214563088,0.0095,0.1755,0.185,0.0549214563088
34600000,98.0134663296,143.089417459,75.4754907651,0.7855,0.183,0.597,0.0155,0.1675,0.183,0.0938029361942,0.0155,0.1635,0.179,0.097049689441,0.0155,0.1635,0.179,0.097049689441,0.0155,0.1635,0.179,0.097049689441,0.0155,0.1635,0.179,0.097049689441,0.0155,0.1635,0.179,0.097049689441
34600000,98.4762070681,143.488271683,75.9701747607,0.7395,0.185,0.5565,0.017,0.1815,0.1985,0.0928147939018,0.017,0.1815,0.1985,0.0928147939018,0.017,0.1815,0.1985,0.0928147939018,0.017,0.1815,0.1985,0.0928147939018,0.017,0.1815,0.1985,0.0928147939018,0.017,0.181,0.198,0.092950075287
34600000,98.4947394417,142.45170728,76.5162555224,0.752,0.1895,0.573,0.008,0.181,0.189,0.0444228778468,0.008,0.181,0.189,0.0444228778468,0.008,0.181,0.189,0.0444228778468,0.008,0.181,0.189,0.0444228778468,0.008,0.181,0.189,0.0444228778468,0.008,0.181,0.189,0.0444228778468
34600000,99.2649417866,143.547602606,77.1236113769,0.777,0.186,0.588,0.023,0.18,0.203,0.126465450311,0.023,0.18,0.203,0.126465450311,0.023,0.18,0.203,0.126465450311,0.023,0.1795,0.2025,0.126958871363,0.023,0.1795,0.2025,0.126958871363,0.023,0.1795,0.2025,0.126958871363
34600000,99.4724170216,144.764138011,76.8265565269,0.7635,0.1845,0.573,0.024,0.1845,0.2085,0.130321557971,0.024,0.1845,0.2085,0.130321557971,0.024,0.1845,0.2085,0.130321557971,0.023,0.1845,0.2075,0.124886775362,0.021,0.1845,0.2055,0.114017210145,0.021,0.1845,0.2055,0.114017210145
34600000,100.102290945,144.344118777,77.9813770291,0.743,0.177,0.563,0.014,0.1765,0.1905,0.0780441252588,0.014,0.176,0.19,0.0781676430454,0.014,0.176,0.19,0.0781676430454,0.014,0.168,0.182,0.0850326316037,0.014,0.168,0.182,0.0850326316037,0.014,0.168,0.182,0.0850326316037
34600000,100.35141124,145.969526957,77.542353382,0.785,0.186,0.596,0.031,0.177,0.208,0.176183418031,0.031,0.177,0.208,0.176183418031,0.031,0.177,0.208,0.176183418031,0.031,0.175,0.206,0.177887963486,0.031,0.175,0.206,0.177887963486,0.031,0.175,0.206,0.177887963486
34600000,100.589011874,147.339348273,77.2138436749,0.736,0.1745,0.5645,0.022,0.169,0.191,0.130724538619,0.022,0.163,0.185,0.132518796992,0.022,0.163,0.185,0.132518796992,0.022,0.163,0.185,0.132518796992,0.022,0.163,0.185,0.132518796992,0.022,0.163,0.185,0.132518796992
34600000,100.740145551,145.86907624,78.1756802067,0.791,0.1785,0.605,0.01,0.1715,0.1815,0.0584145021645,0.01,0.1635,0.1735,0.0611922799423,0.01,0.1635,0.1735,0.0611922799423,0.01,0.1635,0.1735,0.0611922799423,0.01,0.1635,0.1735,0.0611922799423,0.01,0.1635,0.1735,0.0611922799423
34600000,100.810912599,145.458317426,78.4872101852,0.742,0.186,0.5445,0.0095,0.1775,0.187,0.0547619047619,0.0095,0.1775,0.187,0.0547619047619,0.0095,0.1775,0.187,0.0547619047619,0.0095,0.1755,0.185,0.0553884711779,0.0095,0.1755,0.185,0.0553884711779,0.0095,0.1755,0.185,0.0553884711779
34600000,100.90372876,145.791292221,78.4599470301,0.759,0.1855,0.576,0.0365,0.1855,0.222,0.195765398551,0.0365,0.1815,0.218,0.200706110013,0.0365,0.1815,0.218,0.200706110013,0.0365,0.1815,0.218,0.200706110013,0.0365,0.1815,0.218,0.200706110013,0.0365,0.1815,0.218,0.200706110013
34600000,100.993651209,146.149587357,78.4156831345,0.7675,0.1785,0.586,0.01,0.175,0.185,0.0570887445887,0.01,0.174,0.184,0.0574020277968,0.01,0.174,0.184,0.0574020277968,0.01,0.166,0.176,0.0596747550695,0.01,0.166,0.176,0.0596747550695,0.01,0.166,0.176,0.0596747550695
34600000,101.056725832,146.972875987,78.0986507545,0.744,0.183,0.56,0.012,0.181,0.193,0.0659584980237,0.012,0.181,0.193,0.0659584980237,0.012,0.181,0.193,0.0659584980237,0.012,0.181,0.193,0.0659584980237,0.012,0.181,0.193,0.0659584980237,0.012,0.181,0.193,0.0659584980237
34600000,101.057851919,146.607713461,78.2829211487,0.722,0.18,0.538,0.034,0.1695,0.2035,0.200450545831,0.033,0.1695,0.2025,0.195015763222,0.033,0.1695,0.2025,0.195015763222,0.032,0.1695,0.2015,0.18933394504,0.032,0.1695,0.2015,0.18933394504,0.032,0.1695,0.2015,0.18933394504
34600000,101.114513742,146.456059332,78.4437409469,0.7315,0.1865,0.55,0.009,0.1675,0.1765,0.0536779200967,0.009,0.1675,0.1765,0.0536779200967,0.009,0.1675,0.1765,0.0536779200967,0.009,0.1675,0.1765,0.0536779200967,0.009,0.1675,0.1765,0.0536779200967,0.009,0.1675,0.1765,0.0536779200967
34600000,101.119724148,146.817318548,78.2709269475,0.7315,0.1745,0.5555,0.01,0.171,0.181,0.059485479798,0.01,0.171,0.181,0.059485479798,0.01,0.171,0.181,0.059485479798,0.01,0.171,0.181,0.059485479798,0.01,0.171,0.181,0.059485479798,0.01,0.171,0.181,0.059485479798
34600000,101.191050558,147.63195485,77.9705984117,0.722,0.1705,0.542,0.014,0.1635,0.1775,0.0842081529582,0.014,0.1635,0.1775,0.0842081529582,0.014,0.1635,0.1775,0.0842081529582,0.014,0.1635,0.1775,0.0842081529582,0.014,0.1635,0.1775,0.0842081529582,0.014,0.1635,0.1775,0.0842081529582
34600000,101.344425546,145.956593694,79.0383414719,0.7515,0.181,0.568,0.012,0.164,0.176,0.0754059060695,0.012,0.164,0.176,0.0754059060695,0.012,0.164,0.176,0.0754059060695,0.008,0.1635,0.1715,0.0492136343824,0.008,0.1635,0.1715,0.0492136343824,0.008,0.1635,0.1715,0.0492136343824
34600000,101.820199721,148.750890413,78.3548543744,0.78,0.208,0.568,0.008,0.196,0.204,0.0412457912458,0.008,0.196,0.204,0.0412457912458,0.008,0.196,0.204,0.0412457912458,0.008,0.196,0.204,0.0412457912458,0.008,0.196,0.204,0.0412457912458,0.008,0.196,0.204,0.0412457912458
34600000,102.550608248,146.846485774,80.4026694853,0.7455,0.186,0.5565,0.01,0.1755,0.1855,0.0570654526633,0.01,0.1755,0.1855,0.0570654526633,0.01,0.1755,0.1855,0.0570654526633,0.01,0.1755,0.1855,0.0570654526633,0.01,0.1755,0.1855,0.0570654526633,0.01,0.1755,0.1855,0.0570654526633
34600000,103.406027069,149.467709542,80.3751858332,0.748,0.2035,0.5505,0.0115,0.2005,0.212,0.0570432692308,0.0115,0.2005,0.212,0.0570432692308,0.0115,0.2005,0.212,0.0570432692308,0.0115,0.2005,0.212,0.0570432692308,0.0115,0.2005,0.212,0.0570432692308,0.0115,0.2005,0.212,0.0570432692308
34600000,103.427161406,148.866786682,80.7073487681,0.7545,0.185,0.5635,0.0125,0.18,0.1925,0.0691037902315,0.0125,0.18,0.1925,0.0691037902315,0.0125,0.18,0.1925,0.0691037902315,0.0125,0.176,0.1885,0.0703569230636,0.0125,0.176,0.1885,0.0703569230636,0.0125,0.176,0.1885,0.0703569230636
34600000,103.499548083,149.155262693,80.6716907773,0.723,0.1785,0.5395,0.0185,0.1735,0.192,0.107763386975,0.0185,0.1735,0.192,0.107763386975,0.0185,0.1735,0.192,0.107763386975,0.0185,0.1735,0.192,0.107763386975,0.0185,0.1695,0.188,0.110036114248,0.0185,0.1695,0.188,0.110036114248
34600000,103.638875517,149.110666282,80.9029801352,0.7285,0.1775,0.5475,0.014,0.1765,0.1905,0.0794219367589,0.014,0.1755,0.1895,0.0796924995295,0.014,0.1755,0.1895,0.0796924995295,0.014,0.1755,0.1895,0.0796924995295,0.014,0.1755,0.1895,0.0796924995295,0.014,0.1755,0.1895,0.0796924995295
34600000,104.03094352,148.9555058,81.56866238,0.7105,0.1725,0.528,0.034,0.1555,0.1895,0.221041458541,0.028,0.1555,0.1835,0.185327172827,0.028,0.1535,0.1815,0.188898601399,0.028,0.1535,0.1815,0.188898601399,0.028,0.1535,0.1815,0.188898601399,0.028,0.1535,0.1815,0.188898601399
34600000,104.779162098,149.552594599,82.3924458472,0.7525,0.199,0.556,0.021,0.196,0.217,0.106863354037,0.021,0.196,0.217,0.106863354037,0.021,0.196,0.217,0.106863354037,0.021,0.196,0.217,0.106863354037,0.021,0.195,0.216,0.107803203661,0.021,0.195,0.216,0.107803203661
34600000,104.900103452,149.831616053,82.434347152,0.68,0.184,0.4985,0.009,0.1735,0.1825,0.0517245435724,0.009,0.1735,0.1825,0.0517245435724,0.009,0.1735,0.1825,0.0517245435724,0.009,0.1735,0.1825,0.0517245435724,0.009,0.1735,0.1825,0.0517245435724,0.009,0.1735,0.1825,0.0517245435724
34600000,107.089905971,149.960965757,85.6543760781,0.7145,0.183,0.5415,0.016,0.1755,0.1915,0.0938581167593,0.016,0.1755,0.1915,0.0938581167593,0.016,0.1755,0.1915,0.0938581167593,0.016,0.1755,0.1915,0.0938581167593,0.016,0.1755,0.1915,0.0938581167593,0.016,0.1755,0.1915,0.0938581167593
34640000,102.010209337,145.714655911,80.1579860502,0.8245,0.194,0.6285,0.0245,0.191,0.2155,0.124637681159,0.0245,0.191,0.2155,0.124637681159,0.0245,0.191,0.2155,0.124637681159,0.0245,0.191,0.2155,0.124637681159,0.0245,0.191,0.2155,0.124637681159,0.0245,0.191,0.2155,0.124637681159
34640000,102.431509752,145.907819155,80.6933550504,0.79,0.192,0.6005,0.0135,0.1805,0.194,0.0749431818182,0.0135,0.1805,0.194,0.0749431818182,0.0135,0.1805,0.194,0.0749431818182,0.0135,0.176,0.1895,0.0761295995671,0.0135,0.176,0.1895,0.0761295995671,0.0135,0.176,0.1895,0.0761295995671
34640000,102.833360168,148.109794145,80.19514318,0.7955,0.188,0.6035,0.021,0.182,0.203,0.114881834651,0.021,0.182,0.203,0.114881834651,0.021,0.182,0.203,0.114881834651,0.021,0.182,0.203,0.114881834651,0.021,0.182,0.203,0.114881834651,0.021,0.182,0.203,0.114881834651
34640000,104.22819206,147.103256109,82.7906600359,0.7935,0.1905,0.6085,0.0195,0.1695,0.189,0.110991643511,0.0195,0.1695,0.189,0.110991643511,0.0195,0.1695,0.189,0.110991643511,0.0195,0.1695,0.189,0.110991643511,0.0195,0.1695,0.189,0.110991643511,0.0195,0.1695,0.189,0.110991643511
34640000,104.432202746,149.234368329,82.031119954,0.7795,0.191,0.5905,0.018,0.1835,0.2015,0.0994435817805,0.016,0.1835,0.1995,0.0875388198758,0.016,0.1835,0.1995,0.0875388198758,0.016,0.183,0.199,0.0879446640316,0.016,0.183,0.199,0.0879446640316,0.016,0.183,0.199,0.0879446640316
34640000,104.775319774,149.641766034,82.3420966432,0.8065,0.193,0.619,0.0175,0.187,0.2045,0.093525134286,0.0175,0.187,0.2045,0.093525134286,0.0175,0.187,0.2045,0.093525134286,0.0175,0.187,0.2045,0.093525134286,0.0175,0.187,0.2045,0.093525134286,0.0175,0.187,0.2045,0.093525134286
34640000,105.19447922,149.183351628,83.2000430156,0.8075,0.198,0.6125,0.014,0.185,0.199,0.0754281949934,0.014,0.185,0.199,0.0754281949934,0.014,0.185,0.199,0.0754281949934,0.014,0.181,0.195,0.0773221343874,0.014,0.177,0.191,0.0792984189723,0.014,0.177,0.191,0.0792984189723
34640000,105.250959782,149.74980801,83.0015356684,0.829,0.3155,0.5795,0.032,0.3035,0.3355,0.113570914746,0.032,0.3035,0.3355,0.113570914746,0.032,0.3035,0.3355,0.113570914746,0.03,0.3035,0.3335,0.10315424808,0.03,0.3035,0.3335,0.10315424808,0.03,0.3035,0.3335,0.10315424808
34640000,105.825511926,148.744975357,84.3657802106,0.7865,0.2035,0.5975,0.027,0.187,0.214,0.14663961039,0.023,0.187,0.21,0.123912337662,0.022,0.187,0.209,0.118704004329,0.022,0.187,0.209,0.118704004329,0.018,0.187,0.205,0.0959767316017,0.018,0.187,0.205,0.0959767316017
34640000,107.257317082,149.499870093,86.1360405759,0.78,0.184,0.596,0.008,0.184,0.192,0.0434782608696,0.008,0.184,0.192,0.0434782608696,0.008,0.184,0.192,0.0434782608696,0.008,0.184,0.192,0.0434782608696,0.008,0.184,0.192,0.0434782608696,0.008,0.184,0.192,0.0434782608696
34760000,100.335749459,148.235151453,76.3860484627,0.745,0.1735,0.568,0.0205,0.1605,0.181,0.127658635224,0.0205,0.16,0.1805,0.12864547733,0.0205,0.16,0.1805,0.12864547733,0.0205,0.16,0.1805,0.12864547733,0.0205,0.16,0.1805,0.12864547733,0.0205,0.16,0.1805,0.12864547733
34760000,100.785469372,148.553859246,76.9012744344,0.745,0.1835,0.5615,0.014,0.179,0.193,0.0791925465839,0.014,0.179,0.193,0.0791925465839,0.014,0.1775,0.1915,0.081176673568,0.014,0.1775,0.1915,0.081176673568,0.014,0.1775,0.1915,0.081176673568,0.014,0.1775,0.1915,0.081176673568
34760000,100.891738828,148.827602175,76.9238071544,0.745,0.1805,0.5665,0.009,0.1545,0.1635,0.0588084097275,0.009,0.1545,0.1635,0.0588084097275,0.009,0.1545,0.1635,0.0588084097275,0.009,0.1545,0.1635,0.0588084097275,0.009,0.1545,0.1635,0.0588084097275,0.009,0.1545,0.1635,0.0588084097275
34760000,100.95291626,149.134382877,76.8621829512,0.7275,0.185,0.545,0.025,0.1715,0.1965,0.142514364661,0.025,0.1715,0.1965,0.142514364661,0.025,0.1715,0.1965,0.142514364661,0.0235,0.1715,0.195,0.134362190748,0.0235,0.1715,0.195,0.134362190748,0.0235,0.1715,0.195,0.134362190748
34760000,101.091909755,148.869354422,77.2031874219,0.745,0.1845,0.5615,0.024,0.1725,0.1965,0.142326078289,0.024,0.1725,0.1965,0.142326078289,0.024,0.1725,0.1965,0.142326078289,0.024,0.1725,0.1965,0.142326078289,0.02,0.1705,0.1905,0.117472277119,0.02,0.1705,0.1905,0.117472277119
34760000,101.717628643,149.928059778,77.6124130753,0.7335,0.1935,0.5445,0.037,0.1885,0.2255,0.204205020055,0.037,0.1885,0.2255,0.204205020055,0.037,0.1885,0.2255,0.204205020055,0.037,0.1885,0.2255,0.204205020055,0.037,0.1885,0.2255,0.204205020055,0.037,0.1885,0.2255,0.204205020055
34760000,102.44675024,150.352981552,78.4936345842,0.6325,0.273,0.4815,0.0185,0.2645,0.283,0.0850052502798,0.0185,0.2645,0.283,0.0850052502798,0.0185,0.2645,0.283,0.0850052502798,0.0185,0.2645,0.283,0.0850052502798,0.0185,0.2645,0.283,0.0850052502798,0.0185,0.2645,0.283,0.0850052502798
34760000,102.959118617,149.560188652,79.6585835992,0.7085,0.204,0.545,0.019,0.193,0.212,0.0880859820005,0.019,0.193,0.212,0.0880859820005,0.019,0.193,0.212,0.0880859820005,0.019,0.193,0.212,0.0880859820005,0.019,0.193,0.212,0.0880859820005,0.019,0.193,0.212,0.0880859820005
34760000,103.188979333,150.180397184,79.6932704071,0.6985,0.1905,0.534,0.016,0.1765,0.1925,0.0916763128176,0.016,0.1765,0.1925,0.0916763128176,0.016,0.1765,0.1925,0.0916763128176,0.016,0.1765,0.1925,0.0916763128176,0.016,0.1765,0.1925,0.0916763128176,0.016,0.1765,0.1925,0.0916763128176
34760000,103.319524341,150.309793778,79.8243896225,0.7145,0.1835,0.5385,0.0265,0.182,0.2085,0.14503340862,0.0265,0.182,0.2085,0.14503340862,0.0265,0.182,0.2085,0.14503340862,0.0265,0.182,0.2085,0.14503340862,0.0265,0.182,0.2085,0.14503340862,0.026,0.182,0.208,0.142316017316
34760000,103.533549184,150.2422998,80.1791738764,0.7105,0.182,0.519,0.018,0.1815,0.1995,0.100065876153,0.018,0.1815,0.1995,0.100065876153,0.018,0.1815,0.1995,0.100065876153,0.018,0.1815,0.1995,0.100065876153,0.018,0.1815,0.1995,0.100065876153,0.018,0.1815,0.1995,0.100065876153
34760000,104.897236437,149.783763845,82.4539727329,0.736,0.184,0.552,0.032,0.176,0.208,0.181818181818,0.032,0.152,0.184,0.210526315789,0.032,0.152,0.184,0.210526315789,0.032,0.152,0.184,0.210526315789,0.032,0.152,0.184,0.210526315789,0.032,0.152,0.184,0.210526315789
34760000,104.982701233,149.667309397,82.6403971509,0.7315,0.1815,0.5505,0.0155,0.173,0.1885,0.0930941277766,0.0155,0.173,0.1885,0.0930941277766,0.0155,0.173,0.1885,0.0930941277766,0.015,0.173,0.188,0.0902532186857,0.015,0.173,0.188,0.0902532186857,0.015,0.173,0.188,0.0902532186857
34760000,105.124661858,145.359136416,85.0074245786,0.732,0.1975,0.5265,0.012,0.1745,0.1865,0.0665408768863,0.012,0.1745,0.1865,0.0665408768863,0.012,0.1745,0.1865,0.0665408768863,0.012,0.1745,0.1865,0.0665408768863,0.012,0.1715,0.1835,0.0674380060729,0.012,0.1715,0.1835,0.0674380060729
34760000,105.387605691,144.643123793,85.7598466395,0.709,0.197,0.4985,0.011,0.1755,0.1865,0.0627081252081,0.011,0.1755,0.1865,0.0627081252081,0.011,0.175,0.186,0.0629004329004,0.011,0.175,0.186,0.0629004329004,0.011,0.175,0.186,0.0629004329004,0.011,0.175,0.186,0.0629004329004
34760000,105.395032849,149.932267235,83.1264156565,0.72,0.17,0.5445,0.016,0.1665,0.1825,0.0954326923077,0.016,0.1665,0.1825,0.0954326923077,0.016,0.1665,0.1825,0.0954326923077,0.014,0.1665,0.1805,0.0829326923077,0.014,0.1665,0.1805,0.0829326923077,0.014,0.1665,0.1805,0.0829326923077
34760000,106.02189394,150.439817468,83.8129321761,0.714,0.1715,0.5195,0.0155,0.166,0.1815,0.0977429368877,0.0155,0.166,0.1815,0.0977429368877,0.0155,0.166,0.1815,0.0977429368877,0.0155,0.166,0.1815,0.0977429368877,0.0155,0.166,0.1815,0.0977429368877,0.0155,0.166,0.1815,0.0977429368877
34760000,106.233039445,147.450057486,85.6245304248,0.685,0.1745,0.5135,0.0505,0.164,0.2145,0.291530416514,0.0505,0.164,0.2145,0.291530416514,0.0505,0.164,0.2145,0.291530416514,0.0505,0.164,0.2145,0.291530416514,0.0145,0.164,0.1785,0.086984961969,0.0145,0.164,0.1785,0.086984961969
34760000,106.593016863,146.280728128,86.7491612305,0.6915,0.196,0.5045,0.0105,0.193,0.2035,0.0548278985507,0.0105,0.193,0.2035,0.0548278985507,0.0105,0.193,0.2035,0.0548278985507,0.0105,0.193,0.2035,0.0548278985507,0.0105,0.193,0.2035,0.0548278985507,0.0105,0.193,0.2035,0.0548278985507
34760000,106.952331582,149.98896059,85.4340170785,0.719,0.1695,0.543,0.013,0.1645,0.1775,0.0791775841118,0.013,0.1645,0.1775,0.0791775841118,0.013,0.1645,0.1775,0.0791775841118,0.013,0.1645,0.1775,0.0791775841118,0.013,0.1645,0.1775,0.0791775841118,0.013,0.1645,0.1775,0.0791775841118
34760000,107.1905062,148.813874639,86.3788219803,0.7315,0.201,0.533,0.0135,0.197,0.2105,0.0694162640902,0.0115,0.197,0.2085,0.0589995974235,0.0115,0.197,0.2085,0.0589995974235,0.0115,0.197,0.2085,0.0589995974235,0.0115,0.197,0.2085,0.0589995974235,0.0115,0.197,0.2085,0.0589995974235
34760000,107.241906502,150.202929789,85.761394858,0.767,0.1785,0.59,0.0135,0.1685,0.182,0.0792175961294,0.0135,0.1685,0.182,0.0792175961294,0.0135,0.1685,0.182,0.0792175961294,0.0135,0.1685,0.182,0.0792175961294,0.0135,0.1685,0.182,0.0792175961294,0.0135,0.1685,0.182,0.0792175961294
34760000,107.409277285,148.238412423,86.9947097155,0.7165,0.1985,0.519,0.0275,0.188,0.2155,0.145569753711,0.0275,0.188,0.2155,0.145569753711,0.0275,0.188,0.2155,0.145569753711,0.0275,0.188,0.2155,0.145569753711,0.0275,0.188,0.2155,0.145569753711,0.0275,0.188,0.2155,0.145569753711
34760000,107.474890622,150.073534921,86.1755684721,0.7695,0.183,0.587,0.015,0.157,0.172,0.0969497607656,0.015,0.157,0.172,0.0969497607656,0.015,0.157,0.172,0.0969497607656,0.015,0.157,0.172,0.0969497607656,0.015,0.157,0.172,0.0969497607656,0.015,0.157,0.172,0.0969497607656
34760000,107.494480583,148.337535013,87.0729533674,0.7075,0.2065,0.499,0.0115,0.193,0.2045,0.0602579204858,0.0115,0.193,0.2045,0.0602579204858,0.0085,0.193,0.2015,0.0439535726597,0.0085,0.193,0.2015,0.0439535726597,0.0085,0.193,0.2015,0.0439535726597,0.0085,0.193,0.2015,0.0439535726597
34760000,107.83002908,150.131694592,86.6791963238,0.7205,0.174,0.54,0.0115,0.1605,0.172,0.0711110999424,0.0115,0.1605,0.172,0.0711110999424,0.0115,0.1605,0.172,0.0711110999424,0.0115,0.1605,0.172,0.0711110999424,0.0115,0.1605,0.172,0.0711110999424,0.0115,0.1605,0.172,0.0711110999424
34760000,107.855344963,147.181810159,88.1921123658,0.715,0.195,0.5195,0.0225,0.1875,0.21,0.121083662714,0.0225,0.1875,0.21,0.121083662714,0.0225,0.1875,0.21,0.121083662714,0.0215,0.1875,0.209,0.115648880105,0.0215,0.1875,0.209,0.115648880105,0.0215,0.1875,0.209,0.115648880105
34760000,107.882647648,148.471669585,87.588136679,0.7135,0.192,0.525,0.017,0.189,0.206,0.0891196665653,0.017,0.189,0.206,0.0891196665653,0.017,0.189,0.206,0.0891196665653,0.017,0.189,0.206,0.0891196665653,0.0155,0.189,0.2045,0.0813071665653,0.0155,0.189,0.2045,0.0813071665653
34760000,107.939467271,145.824115327,88.9971432426,0.679,0.2295,0.474,0.0215,0.2285,0.25,0.10534639877,0.0215,0.2285,0.25,0.10534639877,0.0215,0.2285,0.25,0.10534639877,0.0215,0.2285,0.25,0.10534639877,0.0215,0.2285,0.25,0.10534639877,0.0215,0.2285,0.25,0.10534639877
34760000,107.981114633,148.514305256,87.7145193211,0.72,0.197,0.41,0.0215,0.1885,0.21,0.11271780303,0.0215,0.1885,0.21,0.11271780303,0.0215,0.1885,0.21,0.11271780303,0.0215,0.1875,0.209,0.113170701581,0.0215,0.1875,0.209,0.113170701581,0.0215,0.1865,0.208,0.113664772727
34760000,108.133043462,150.286432215,87.0563490856,0.685,0.1735,0.5105,0.0185,0.15,0.1685,0.125116294524,0.0185,0.15,0.1685,0.125116294524,0.0185,0.15,0.1685,0.125116294524,0.0185,0.15,0.1685,0.125116294524,0.0185,0.15,0.1685,0.125116294524,0.0185,0.149,0.1675,0.125400385433
34760000,108.152700613,150.058843322,87.1996292591,0.7625,0.1835,0.579,0.0135,0.1715,0.185,0.0777576971084,0.0135,0.1715,0.185,0.0777576971084,0.0135,0.1715,0.185,0.0777576971084,0.0135,0.1715,0.185,0.0777576971084,0.0135,0.1715,0.185,0.0777576971084,0.0135,0.1715,0.185,0.0777576971084
34760000,108.355722312,150.240661457,87.4132527394,0.7485,0.1745,0.573,0.012,0.1685,0.1805,0.071158008658,0.012,0.1685,0.1805,0.071158008658,0.012,0.1685,0.1805,0.071158008658,0.012,0.1685,0.1805,0.071158008658,0.012,0.1685,0.1805,0.071158008658,0.012,0.1685,0.1805,0.071158008658
34760000,108.422082746,150.511492424,87.3773779067,0.6225,0.163,0.4175,0.0215,0.156,0.1775,0.136050724638,0.0215,0.156,0.1775,0.136050724638,0.0215,0.156,0.1775,0.136050724638,0.0215,0.156,0.1775,0.136050724638,0.0215,0.156,0.1775,0.136050724638,0.0215,0.156,0.1775,0.136050724638
34760000,108.49996388,150.222507067,87.6386922873,0.7335,0.176,0.5585,0.0165,0.164,0.1805,0.0980113636364,0.0165,0.164,0.1805,0.0980113636364,0.0165,0.164,0.1805,0.0980113636364,0.0165,0.164,0.1805,0.0980113636364,0.0165,0.164,0.1805,0.0980113636364,0.0165,0.164,0.1805,0.0980113636364
34760000,108.741623556,147.763123506,89.2308735818,0.669,0.1935,0.468,0.008,0.1875,0.1955,0.0427359189723,0.008,0.186,0.194,0.0430768280632,0.008,0.186,0.194,0.0430768280632,0.008,0.186,0.194,0.0430768280632,0.008,0.186,0.194,0.0430768280632,0.008,0.178,0.186,0.0456020805885
34760000,108.763432767,150.675012081,87.8076431096,0.6625,0.1615,0.4905,0.02,0.1505,0.1705,0.136669799499,0.02,0.1505,0.1705,0.136669799499,0.02,0.1505,0.1705,0.136669799499,0.02,0.1505,0.1705,0.136669799499,0.02,0.1505,0.1705,0.136669799499,0.02,0.1505,0.1705,0.136669799499
34760000,108.971600278,150.053713765,88.4305435345,0.7395,0.1835,0.56,0.0185,0.16,0.1785,0.110311186398,0.0185,0.16,0.1785,0.110311186398,0.0185,0.16,0.1785,0.110311186398,0.0185,0.16,0.1785,0.110311186398,0.0185,0.16,0.1785,0.110311186398,0.0185,0.16,0.1785,0.110311186398
34760000,109.211534551,150.482346561,88.5761285462,0.667,0.262,0.504,0.0215,0.2555,0.277,0.0798449612403,0.0215,0.2555,0.277,0.0798449612403,0.0215,0.2555,0.277,0.0798449612403,0.0215,0.2555,0.277,0.0798449612403,0.0215,0.2555,0.277,0.0798449612403,0.0215,0.2555,0.277,0.0798449612403
34760000,109.382145152,150.180210326,88.9831125653,0.76,0.1795,0.5805,0.0225,0.1405,0.163,0.183786231884,0.0225,0.14,0.1625,0.183935041408,0.0225,0.14,0.1625,0.183935041408,0.0225,0.14,0.1625,0.183935041408,0.0225,0.14,0.1625,0.183935041408,0.0225,0.138,0.1605,0.184429112554
34760000,109.563632671,149.484163487,89.6033672636,0.6965,0.203,0.4915,0.0105,0.202,0.2125,0.0521296296296,0.0105,0.202,0.2125,0.0521296296296,0.0105,0.202,0.2125,0.0521296296296,0.0105,0.202,0.2125,0.0521296296296,0.0105,0.202,0.2125,0.0521296296296,0.0105,0.202,0.2125,0.0521296296296
34760000,110.185859018,149.395986516,90.5807952699,0.6655,0.2365,0.454,0.017,0.193,0.21,0.110040695626,0.017,0.193,0.21,0.110040695626,0.017,0.193,0.21,0.110040695626,0.017,0.193,0.21,0.110040695626,0.017,0.193,0.21,0.110040695626,0.017,0.193,0.21,0.110040695626
34760000,110.388456389,149.442602328,90.8613834193,0.678,0.2025,0.4795,0.0285,0.202,0.2305,0.14431511471,0.028,0.202,0.23,0.142670377868,0.028,0.201,0.229,0.143054993252,0.028,0.201,0.229,0.143054993252,0.028,0.201,0.229,0.143054993252,0.028,0.201,0.229,0.143054993252
34760000,111.046341803,149.819093163,91.6599661236,0.704,0.1885,0.5175,0.014,0.1625,0.1765,0.0845888622247,0.014,0.1625,0.1765,0.0845888622247,0.014,0.1625,0.1765,0.0845888622247,0.014,0.1625,0.1765,0.0845888622247,0.009,0.1625,0.1715,0.0564268068888,0.009,0.1625,0.1715,0.0564268068888
34800000,103.190039152,147.413500087,81.0783086842,0.684,0.18,0.508,0.028,0.16,0.188,0.190537084399,0.028,0.16,0.188,0.190537084399,0.028,0.16,0.188,0.190537084399,0.028,0.16,0.188,0.190537084399,0.028,0.16,0.188,0.190537084399,0.028,0.16,0.188,0.190537084399
34800000,103.474661067,143.074141379,83.6749209118,0.679,0.211,0.4835,0.0135,0.21,0.2235,0.0687391193036,0.0135,0.21,0.2235,0.0687391193036,0.0135,0.21,0.2235,0.0687391193036,0.0135,0.21,0.2235,0.0687391193036,0.0135,0.21,0.2235,0.0687391193036,0.0135,0.21,0.2235,0.0687391193036
34800000,103.886018718,147.847850815,81.9051026691,0.6905,0.1855,0.505,0.01,0.183,0.193,0.0591047218326,0.01,0.183,0.193,0.0591047218326,0.01,0.183,0.193,0.0591047218326,0.01,0.183,0.193,0.0591047218326,0.01,0.183,0.193,0.0591047218326,0.01,0.183,0.193,0.0591047218326
34800000,104.407982919,148.2134726,82.5052380778,0.6685,0.1905,0.482,0.033,0.184,0.217,0.175712560386,0.033,0.184,0.217,0.175712560386,0.033,0.184,0.217,0.175712560386,0.033,0.184,0.217,0.175712560386,0.033,0.184,0.217,0.175712560386,0.033,0.184,0.217,0.175712560386
34800000,104.81457786,148.298397172,83.0726682045,0.6855,0.2155,0.468,0.03,0.2145,0.2445,0.153446831479,0.03,0.2145,0.2445,0.153446831479,0.03,0.2145,0.2445,0.153446831479,0.0275,0.2145,0.242,0.144150492806,0.0275,0.2145,0.242,0.144150492806,0.0275,0.2145,0.242,0.144150492806
34800000,104.987900229,149.38981175,82.786944469,0.6795,0.1825,0.4925,0.0115,0.1715,0.183,0.0675595238095,0.01,0.1715,0.1815,0.058630952381,0.01,0.1715,0.1815,0.058630952381,0.01,0.1715,0.1815,0.058630952381,0.01,0.1715,0.1815,0.058630952381,0.009,0.1715,0.1805,0.0529491341991
34800000,105.391307417,146.421622422,84.8761499138,0.609,0.1505,0.442,0.0145,0.1475,0.162,0.0946130952381,0.0145,0.1475,0.162,0.0946130952381,0.0145,0.1475,0.162,0.0946130952381,0.0145,0.1475,0.162,0.0946130952381,0.0145,0.1465,0.161,0.0950865800866,0.0145,0.1465,0.161,0.0950865800866
34800000,106.343979108,149.138158913,84.9468892057,0.691,0.186,0.4325,0.017,0.1585,0.1755,0.10714869281,0.017,0.1585,0.1755,0.10714869281,0.017,0.1585,0.1755,0.10714869281,0.017,0.1585,0.1755,0.10714869281,0.017,0.1585,0.1755,0.10714869281,0.017,0.1585,0.1755,0.10714869281
34800000,106.403496954,148.55184997,85.3293204461,0.6555,0.1995,0.47,0.009,0.1865,0.1955,0.0498090222785,0.009,0.1865,0.1955,0.0498090222785,0.009,0.1865,0.1955,0.0498090222785,0.009,0.1865,0.1955,0.0498090222785,0.009,0.1855,0.1945,0.0501066413262,0.009,0.1855,0.1945,0.0501066413262
34800000,106.648556406,149.694910589,85.1253793141,0.6485,0.262,0.4675,0.019,0.256,0.275,0.102370161515,0.019,0.256,0.275,0.102370161515,0.019,0.256,0.275,0.102370161515,0.019,0.256,0.275,0.102370161515,0.019,0.256,0.275,0.102370161515,0.019,0.256,0.275,0.102370161515
34800000,106.844342504,149.17388228,85.6795726165,0.6715,0.184,0.488,0.012,0.1715,0.1835,0.0732605789351,0.012,0.1715,0.1835,0.0732605789351,0.012,0.1715,0.1835,0.0732605789351,0.012,0.1715,0.1835,0.0732605789351,0.012,0.1715,0.1835,0.0732605789351,0.012,0.1715,0.1835,0.0732605789351
34800000,108.376498006,148.541298273,88.2940978725,0.6485,0.2025,0.412,0.02,0.1985,0.2185,0.100685320115,0.02,0.1945,0.2145,0.102993012422,0.02,0.1945,0.2145,0.102993012422,0.02,0.1945,0.2145,0.102993012422,0.02,0.1945,0.2145,0.102993012422,0.02,0.1945,0.2145,0.102993012422
34800000,108.430284797,150.380750775,87.4550518077,0.6415,0.2355,0.4315,0.028,0.2325,0.2605,0.127370041286,0.028,0.2325,0.2605,0.127370041286,0.028,0.2325,0.2605,0.127370041286,0.028,0.2325,0.2605,0.127370041286,0.028,0.2315,0.2595,0.127654132195,0.028,0.2315,0.2595,0.127654132195
34800000,108.882983276,149.983948424,88.3325007026,0.657,0.2805,0.469,0.013,0.27,0.283,0.0451905153509,0.013,0.27,0.283,0.0451905153509,0.013,0.27,0.283,0.0451905153509,0.013,0.27,0.283,0.0451905153509,0.013,0.27,0.283,0.0451905153509,0.013,0.27,0.283,0.0451905153509
34840000,90.7156449003,128.322574117,71.9121802918,0.691,0.1735,0.5225,0.012,0.1625,0.1745,0.0721761790841,0.012,0.1625,0.1745,0.0721761790841,0.012,0.1625,0.1745,0.0721761790841,0.012,0.1625,0.1745,0.0721761790841,0.012,0.1625,0.1745,0.0721761790841,0.012,0.1625,0.1745,0.0721761790841
34840000,91.616797755,128.689105813,73.080643726,0.694,0.1785,0.509,0.013,0.168,0.181,0.07997265892,0.013,0.168,0.181,0.07997265892,0.013,0.168,0.181,0.07997265892,0.013,0.168,0.181,0.07997265892,0.013,0.168,0.181,0.07997265892,0.013,0.168,0.181,0.07997265892
34840000,92.3833881333,129.945823807,73.6021702965,0.688,0.1785,0.5115,0.016,0.1675,0.1835,0.0975193665983,0.016,0.1675,0.1835,0.0975193665983,0.016,0.1675,0.1835,0.0975193665983,0.016,0.1675,0.1835,0.0975193665983,0.016,0.1675,0.1835,0.0975193665983,0.016,0.1675,0.1835,0.0975193665983
34840000,92.6236426832,131.365635525,73.2526462624,0.683,0.1665,0.514,0.0145,0.165,0.1795,0.088446969697,0.0145,0.165,0.1795,0.088446969697,0.0145,0.165,0.1795,0.088446969697,0.013,0.165,0.178,0.0795183982684,0.013,0.165,0.178,0.0795183982684,0.013,0.165,0.178,0.0795183982684
34840000,92.7982066599,132.517116942,72.9387515191,0.674,0.1685,0.5025,0.0125,0.1605,0.173,0.0794443495101,0.0125,0.1605,0.173,0.0794443495101,0.0125,0.1605,0.173,0.0794443495101,0.0125,0.1605,0.173,0.0794443495101,0.0125,0.1605,0.173,0.0794443495101,0.0125,0.1605,0.173,0.0794443495101
34840000,93.319314091,131.65899586,74.1494732065,0.6745,0.1735,0.5065,0.0415,0.1595,0.201,0.255887127578,0.0215,0.1595,0.181,0.136839508531,0.0215,0.1595,0.181,0.136839508531,0.0175,0.1595,0.177,0.107427743825,0.0175,0.1595,0.177,0.107427743825,0.0175,0.1595,0.177,0.107427743825
34840000,93.4165337135,138.485369488,70.8821158259,0.6955,0.1745,0.52,0.027,0.174,0.201,0.155316558442,0.027,0.174,0.201,0.155316558442,0.027,0.174,0.201,0.155316558442,0.027,0.174,0.201,0.155316558442,0.027,0.174,0.201,0.155316558442,0.027,0.174,0.201,0.155316558442
34840000,93.7839862898,131.757164765,74.7973970521,0.6795,0.1755,0.5005,0.015,0.1745,0.1895,0.0870329851308,0.015,0.1745,0.1895,0.0870329851308,0.015,0.1745,0.1895,0.0870329851308,0.015,0.1745,0.1895,0.0870329851308,0.015,0.1745,0.1895,0.0870329851308,0.015,0.1745,0.1895,0.0870329851308
34840000,94.1086457197,132.226538418,75.0496993705,0.678,0.1755,0.502,0.013,0.1725,0.1855,0.0750819117953,0.013,0.1645,0.1775,0.0796273663408,0.013,0.1645,0.1775,0.0796273663408,0.013,0.1645,0.1775,0.0796273663408,0.013,0.1645,0.1775,0.0796273663408,0.013,0.1645,0.1775,0.0796273663408
34840000,94.1640935202,133.048054745,74.7221129076,0.6895,0.247,0.497,0.013,0.243,0.256,0.0734935822155,0.013,0.243,0.256,0.0734935822155,0.013,0.243,0.256,0.0734935822155,0.013,0.243,0.256,0.0734935822155,0.013,0.243,0.256,0.0734935822155,0.013,0.243,0.256,0.0734935822155
34840000,94.1889268531,131.525082781,75.520848889,0.6795,0.1775,0.5035,0.0205,0.1425,0.163,0.151671122995,0.0205,0.1425,0.163,0.151671122995,0.0205,0.1425,0.163,0.151671122995,0.0205,0.1425,0.163,0.151671122995,0.0205,0.1425,0.163,0.151671122995,0.0205,0.1425,0.163,0.151671122995
34840000,94.4367213084,130.498692891,76.4057355169,0.647,0.1875,0.4605,0.0305,0.185,0.2155,0.164124800638,0.0305,0.185,0.2155,0.164124800638,0.0305,0.185,0.2155,0.164124800638,0.0305,0.185,0.2155,0.164124800638,0.0305,0.185,0.2155,0.164124800638,0.0305,0.185,0.2155,0.164124800638
34840000,94.6493110275,135.237106138,74.3554134725,0.6765,0.1735,0.507,0.035,0.17,0.205,0.208689336979,0.035,0.17,0.205,0.208689336979,0.034,0.17,0.204,0.202439336979,0.034,0.17,0.204,0.202439336979,0.034,0.17,0.204,0.202439336979,0.034,0.17,0.204,0.202439336979
34840000,94.8289616337,130.065514328,77.2106852867,0.642,0.197,0.472,0.03,0.189,0.219,0.154452639752,0.03,0.189,0.219,0.154452639752,0.03,0.189,0.219,0.154452639752,0.03,0.189,0.219,0.154452639752,0.03,0.189,0.219,0.154452639752,0.03,0.189,0.219,0.154452639752
34840000,94.8314271487,136.668906211,73.9126876176,0.6935,0.1995,0.5295,0.022,0.1855,0.2075,0.126480785297,0.022,0.1855,0.2075,0.126480785297,0.022,0.1855,0.2075,0.126480785297,0.022,0.1855,0.2075,0.126480785297,0.022,0.1855,0.2075,0.126480785297,0.022,0.1855,0.2075,0.126480785297
34840000,94.8491794777,133.248362607,75.6495879129,0.6745,0.175,0.499,0.0135,0.155,0.1685,0.0978084415584,0.0135,0.155,0.1685,0.0978084415584,0.0135,0.155,0.1685,0.0978084415584,0.0135,0.155,0.1685,0.0978084415584,0.0135,0.155,0.1685,0.0978084415584,0.0135,0.155,0.1685,0.0978084415584
34840000,95.1824455096,136.015188624,74.7660739523,0.668,0.181,0.4945,0.0135,0.179,0.1925,0.0750123517787,0.0135,0.179,0.1925,0.0750123517787,0.0135,0.179,0.1925,0.0750123517787,0.0135,0.179,0.1925,0.0750123517787,0.0135,0.179,0.1925,0.0750123517787,0.0135,0.179,0.1925,0.0750123517787
34840000,95.3703600224,132.443250609,76.833914729,0.635,0.1795,0.4515,0.012,0.1725,0.1845,0.0695020913771,0.012,0.1725,0.1845,0.0695020913771,0.012,0.1725,0.1845,0.0695020913771,0.012,0.1725,0.1845,0.0695020913771,0.012,0.1725,0.1845,0.0695020913771,0.012,0.1725,0.1845,0.0695020913771
34840000,96.1624866592,138.388165974,75.049647002,0.6695,0.1715,0.4955,0.034,0.152,0.186,0.222217000835,0.022,0.152,0.174,0.143269632414,0.022,0.152,0.174,0.143269632414,0.022,0.152,0.174,0.143269632414,0.022,0.152,0.174,0.143269632414,0.022,0.152,0.174,0.143269632414
34840000,96.7111045683,137.914098014,76.1096078456,0.656,0.1755,0.48,0.0235,0.1705,0.194,0.147462534605,0.0235,0.1685,0.192,0.149545867938,0.0235,0.1685,0.192,0.149545867938,0.0235,0.1685,0.192,0.149545867938,0.0235,0.1685,0.192,0.149545867938,0.0235,0.1685,0.192,0.149545867938
34840000,96.7408968563,134.995196617,77.6137469758,0.6835,0.1755,0.492,0.018,0.1685,0.1865,0.104905730235,0.018,0.1685,0.1865,0.104905730235,0.018,0.1685,0.1865,0.104905730235,0.018,0.1685,0.1865,0.104905730235,0.018,0.1685,0.1865,0.104905730235,0.018,0.1685,0.1865,0.104905730235
34840000,96.851946133,138.315722183,76.1200581083,0.6735,0.174,0.499,0.013,0.1685,0.1815,0.0774589381207,0.009,0.1685,0.1775,0.0536494143112,0.009,0.1685,0.1775,0.0536494143112,0.009,0.1685,0.1775,0.0536494143112,0.009,0.1685,0.1775,0.0536494143112,0.009,0.1685,0.1775,0.0536494143112
34840000,97.1450689875,138.939697463,76.2477547499,0.6635,0.175,0.492,0.018,0.1665,0.1845,0.110037878788,0.018,0.1665,0.1845,0.110037878788,0.018,0.1665,0.1845,0.110037878788,0.018,0.1665,0.1845,0.110037878788,0.018,0.1665,0.1845,0.110037878788,0.018,0.1665,0.1845,0.110037878788
34840000,97.2747282819,140.036305407,75.8939397195,0.671,0.1665,0.496,0.0265,0.153,0.1795,0.171711601307,0.0265,0.153,0.1795,0.171711601307,0.0265,0.153,0.1795,0.171711601307,0.0265,0.153,0.1795,0.171711601307,0.0265,0.153,0.1795,0.171711601307,0.0265,0.153,0.1795,0.171711601307
34840000,97.5183895883,140.714776996,75.9201958843,0.668,0.1655,0.5015,0.034,0.159,0.193,0.212562656642,0.034,0.159,0.193,0.212562656642,0.034,0.159,0.193,0.212562656642,0.034,0.159,0.193,0.212562656642,0.034,0.159,0.193,0.212562656642,0.034,0.159,0.193,0.212562656642
34840000,97.5993453336,139.896106437,76.4509647821,0.6675,0.172,0.4975,0.025,0.1715,0.1965,0.144480519481,0.025,0.1715,0.1965,0.144480519481,0.025,0.1715,0.1965,0.144480519481,0.025,0.1715,0.1965,0.144480519481,0.025,0.1715,0.1965,0.144480519481,0.025,0.1715,0.1965,0.144480519481
34840000,97.7084128103,140.178081931,76.4735782501,0.6935,0.1875,0.5045,0.016,0.182,0.198,0.0877815988836,0.016,0.182,0.198,0.0877815988836,0.016,0.182,0.198,0.0877815988836,0.016,0.182,0.198,0.0877815988836,0.016,0.182,0.198,0.0877815988836,0.016,0.182,0.198,0.0877815988836
34840000,97.732602463,140.990796782,76.1035053037,0.7045,0.183,0.5255,0.009,0.164,0.173,0.0553291178131,0.009,0.164,0.173,0.0553291178131,0.009,0.164,0.173,0.0553291178131,0.009,0.164,0.173,0.0553291178131,0.009,0.164,0.173,0.0553291178131,0.009,0.164,0.173,0.0553291178131
34840000,98.1557237662,134.902233754,79.7824687721,0.6545,0.21,0.4555,0.015,0.194,0.209,0.0739624089808,0.015,0.194,0.209,0.0739624089808,0.015,0.194,0.209,0.0739624089808,0.015,0.194,0.209,0.0739624089808,0.015,0.194,0.209,0.0739624089808,0.015,0.194,0.209,0.0739624089808
34840000,98.5193406536,141.286586124,77.1357179182,0.6705,0.17,0.498,0.0175,0.1575,0.175,0.110467931192,0.0155,0.1575,0.173,0.099104294828,0.0155,0.1575,0.173,0.099104294828,0.0155,0.1575,0.173,0.099104294828,0.0155,0.1575,0.173,0.099104294828,0.0155,0.1575,0.173,0.099104294828
34840000,99.4952079687,143.466861426,77.5093812399,0.672,0.166,0.5075,0.012,0.159,0.171,0.0744674185464,0.012,0.159,0.171,0.0744674185464,0.012,0.159,0.171,0.0744674185464,0.012,0.159,0.171,0.0744674185464,0.011,0.159,0.17,0.068515037594,0.011,0.159,0.17,0.068515037594
34840000,99.7493247896,144.453230728,77.3973718203,0.6765,0.1675,0.4975,0.016,0.167,0.183,0.0955357142857,0.016,0.167,0.183,0.0955357142857,0.016,0.167,0.183,0.0955357142857,0.016,0.167,0.183,0.0955357142857,0.016,0.167,0.183,0.0955357142857,0.016,0.167,0.183,0.0955357142857
34840000,100.203343405,144.59189206,78.0090690774,0.671,0.237,0.507,0.0105,0.224,0.2345,0.0533439577204,0.0105,0.224,0.2345,0.0533439577204,0.0105,0.224,0.2345,0.0533439577204,0.0105,0.224,0.2345,0.0533439577204,0.0105,0.224,0.2345,0.0533439577204,0.0105,0.224,0.2345,0.0533439577204
34840000,100.426896421,142.843578868,79.2185551972,0.6495,0.1605,0.45,0.011,0.1385,0.1495,0.0807606456044,0.011,0.1385,0.1495,0.0807606456044,0.011,0.1385,0.1495,0.0807606456044,0.011,0.1385,0.1495,0.0807606456044,0.011,0.1385,0.1495,0.0807606456044,0.011,0.1385,0.1495,0.0807606456044
34840000,100.452153608,144.198565677,78.5789475741,0.6775,0.1775,0.5,0.021,0.1765,0.1975,0.117971249765,0.021,0.1765,0.1975,0.117971249765,0.021,0.1765,0.1975,0.117971249765,0.021,0.1745,0.1955,0.118512375306,0.021,0.1745,0.1955,0.118512375306,0.021,0.1725,0.1935,0.119107613401
34840000,100.916668867,146.621140058,78.0644332714,0.6715,0.1685,0.503,0.0155,0.1645,0.18,0.0948457792208,0.0155,0.1645,0.18,0.0948457792208,0.0155,0.1645,0.18,0.0948457792208,0.0155,0.1645,0.18,0.0948457792208,0.0155,0.1645,0.18,0.0948457792208,0.0155,0.1645,0.18,0.0948457792208
34840000,101.053289144,144.533647993,79.3131097192,0.6555,0.178,0.479,0.0325,0.1765,0.209,0.182146324309,0.0325,0.1765,0.209,0.182146324309,0.0325,0.1765,0.209,0.182146324309,0.0325,0.1765,0.209,0.182146324309,0.0325,0.1765,0.209,0.182146324309,0.0325,0.1765,0.209,0.182146324309
34840000,101.295530094,145.771283922,79.0576531794,0.668,0.1635,0.501,0.0245,0.1525,0.177,0.164087301587,0.0245,0.1485,0.173,0.165476190476,0.0245,0.1485,0.173,0.165476190476,0.0245,0.1485,0.173,0.165476190476,0.0245,0.1485,0.173,0.165476190476,0.0245,0.1485,0.173,0.165476190476
34840000,101.85404196,145.973883064,79.7941214078,0.662,0.1745,0.4895,0.014,0.1545,0.1685,0.0917480728336,0.014,0.1545,0.1685,0.0917480728336,0.014,0.1545,0.1685,0.0917480728336,0.014,0.1545,0.1685,0.0917480728336,0.014,0.1545,0.1685,0.0917480728336,0.014,0.1545,0.1685,0.0917480728336
34840000,102.796582327,148.687483379,79.8511318013,0.6295,0.1425,0.456,0.0195,0.137,0.1565,0.146279761905,0.0195,0.137,0.1565,0.146279761905,0.0195,0.137,0.1565,0.146279761905,0.0195,0.137,0.1565,0.146279761905,0.0195,0.137,0.1565,0.146279761905,0.0195,0.137,0.1565,0.146279761905
34840000,102.849255356,147.320423228,80.6136714196,0.6535,0.1615,0.492,0.008,0.1565,0.1645,0.0512400793651,0.008,0.1565,0.1645,0.0512400793651,0.008,0.1565,0.1645,0.0512400793651,0.008,0.1565,0.1645,0.0512400793651,0.008,0.1565,0.1645,0.0512400793651,0.008,0.1565,0.1645,0.0512400793651
34840000,103.689276489,149.020883565,81.0234729515,0.6515,0.1655,0.4835,0.013,0.1445,0.1575,0.0895231338149,0.013,0.1445,0.1575,0.0895231338149,0.013,0.1445,0.1575,0.0895231338149,0.013,0.1445,0.1575,0.0895231338149,0.013,0.1445,0.1575,0.0895231338149,0.013,0.1445,0.1575,0.0895231338149
34840000,103.825067267,149.738308754,80.8684465238,0.66,0.185,0.49,0.0205,0.1775,0.198,0.132650029709,0.0205,0.1775,0.198,0.132650029709,0.0205,0.1775,0.198,0.132650029709,0.0205,0.1775,0.198,0.132650029709,0.0205,0.1775,0.198,0.132650029709,0.0205,0.1775,0.198,0.132650029709
34840000,104.50700262,149.356851473,82.082078194,0.6525,0.2195,0.489,0.0125,0.2185,0.231,0.0557832946992,0.0125,0.2185,0.231,0.0557832946992,0.012,0.2185,0.2305,0.0529423856083,0.012,0.2185,0.2305,0.0529423856083,0.012,0.2185,0.2305,0.0529423856083,0.012,0.2185,0.2305,0.0529423856083
34840000,106.123852481,150.276831404,84.0473630199,0.63,0.1715,0.442,0.02,0.1665,0.1865,0.121557486631,0.02,0.1665,0.1865,0.121557486631,0.02,0.1665,0.1865,0.121557486631,0.02,0.1665,0.1865,0.121557486631,0.02,0.1665,0.1865,0.121557486631,0.02,0.1665,0.1865,0.121557486631
34920000,83.1662314398,95.3780954956,77.0602994119,0.766,0.1765,0.5895,0.0245,0.1765,0.201,0.139092791267,0.0245,0.1765,0.201,0.139092791267,0.0245,0.1765,0.201,0.139092791267,0.0245,0.1765,0.201,0.139092791267,0.0245,0.1765,0.201,0.139092791267,0.0245,0.1765,0.201,0.139092791267
34920000,85.1495764806,95.535030361,79.9568495404,0.742,0.1765,0.5655,0.0135,0.1635,0.177,0.0824945887446,0.0135,0.1635,0.177,0.0824945887446,0.0135,0.1635,0.177,0.0824945887446,0.013,0.1635,0.1765,0.0796536796537,0.013,0.1635,0.1765,0.0796536796537,0.013,0.1635,0.1765,0.0796536796537
34920000,86.167862622,98.0427065483,80.2304406588,0.76,0.168,0.6,0.024,0.168,0.192,0.142857142857,0.024,0.168,0.192,0.142857142857,0.024,0.168,0.192,0.142857142857,0.024,0.168,0.192,0.142857142857,0.024,0.168,0.192,0.142857142857,0.024,0.168,0.192,0.142857142857
34920000,86.5313411396,97.3154157503,81.1393038343,0.785,0.173,0.6165,0.014,0.17,0.184,0.0822940503432,0.014,0.17,0.184,0.0822940503432,0.014,0.17,0.184,0.0822940503432,0.014,0.17,0.184,0.0822940503432,0.014,0.17,0.184,0.0822940503432,0.014,0.17,0.184,0.0822940503432
34920000,86.6977222523,99.7984985486,80.1473341041,0.7635,0.168,0.5965,0.0125,0.168,0.1805,0.0744047619048,0.0125,0.168,0.1805,0.0744047619048,0.0125,0.168,0.1805,0.0744047619048,0.0125,0.168,0.1805,0.0744047619048,0.0125,0.168,0.1805,0.0744047619048,0.0125,0.168,0.1805,0.0744047619048
34920000,88.646926397,100.239464152,82.8506575196,0.7465,0.1695,0.578,0.017,0.159,0.176,0.107514880952,0.017,0.159,0.176,0.107514880952,0.017,0.159,0.176,0.107514880952,0.017,0.1565,0.1735,0.109598214286,0.017,0.1565,0.1735,0.109598214286,0.017,0.1565,0.1735,0.109598214286
34920000,88.7631554886,99.3740753499,83.4576955579,0.754,0.1715,0.5845,0.015,0.165,0.18,0.0933621933622,0.015,0.165,0.18,0.0933621933622,0.012,0.165,0.177,0.0746121933622,0.01,0.165,0.175,0.0607233044733,0.01,0.165,0.175,0.0607233044733,0.0085,0.165,0.1735,0.0517947330447
34920000,89.5675943627,101.552966116,83.5749084859,0.759,0.164,0.594,0.02,0.15,0.17,0.132398705096,0.02,0.15,0.17,0.132398705096,0.02,0.15,0.17,0.132398705096,0.02,0.15,0.17,0.132398705096,0.02,0.15,0.17,0.132398705096,0.02,0.15,0.17,0.132398705096
34920000,89.7713030484,101.839095878,83.7374066335,0.7475,0.1665,0.581,0.0105,0.1635,0.174,0.0652568922306,0.0105,0.1615,0.172,0.0659147869674,0.0105,0.1615,0.172,0.0659147869674,0.0105,0.1615,0.172,0.0659147869674,0.0105,0.1615,0.172,0.0659147869674,0.0105,0.1615,0.172,0.0659147869674
34920000,90.4629973834,100.810285169,85.2893534907,0.7315,0.1675,0.5615,0.0215,0.1575,0.179,0.133786525974,0.0215,0.1575,0.179,0.133786525974,0.0215,0.1575,0.179,0.133786525974,0.0215,0.1575,0.179,0.133786525974,0.0205,0.1575,0.178,0.127834145022,0.0205,0.1575,0.178,0.127834145022
34920000,91.8247170703,104.254232616,85.6099592974,0.781,0.188,0.603,0.016,0.1645,0.1805,0.0948412698413,0.016,0.1645,0.1805,0.0948412698413,0.016,0.1645,0.1805,0.0948412698413,0.0155,0.1645,0.18,0.091369047619,0.0155,0.1645,0.18,0.091369047619,0.0155,0.1645,0.18,0.091369047619
34920000,92.9294391515,105.554900245,86.6167086045,0.745,0.1815,0.579,0.023,0.169,0.192,0.140155075188,0.023,0.169,0.192,0.140155075188,0.023,0.169,0.192,0.140155075188,0.023,0.169,0.192,0.140155075188,0.023,0.169,0.192,0.140155075188,0.023,0.169,0.192,0.140155075188
34920000,93.2463706763,105.005850714,87.3666306572,0.742,0.166,0.577,0.023,0.1655,0.1885,0.135797590567,0.023,0.1655,0.1885,0.135797590567,0.023,0.1655,0.1885,0.135797590567,0.023,0.1655,0.1885,0.135797590567,0.023,0.1615,0.1845,0.139369019139,0.023,0.161,0.184,0.139533492823
34960000,89.530993658,106.231697476,81.1806417489,0.723,0.1805,0.543,0.017,0.172,0.189,0.097739036326,0.017,0.172,0.189,0.097739036326,0.017,0.172,0.189,0.097739036326,0.017,0.172,0.189,0.097739036326,0.017,0.172,0.189,0.097739036326,0.017,0.172,0.189,0.097739036326
34960000,90.1186058797,108.99106734,80.6823751496,0.7525,0.175,0.572,0.01,0.162,0.172,0.06072431573,0.01,0.162,0.172,0.06072431573,0.01,0.162,0.172,0.06072431573,0.01,0.162,0.172,0.06072431573,0.01,0.162,0.172,0.06072431573,0.01,0.162,0.172,0.06072431573
34960000,90.4936908591,107.723897398,81.8785875898,0.6995,0.172,0.525,0.012,0.168,0.18,0.0726668862538,0.012,0.168,0.18,0.0726668862538,0.012,0.168,0.18,0.0726668862538,0.012,0.168,0.18,0.0726668862538,0.0095,0.168,0.1775,0.0577859338729,0.0095,0.168,0.1775,0.0577859338729
34960000,91.0684268939,109.270005103,81.9676377894,0.7445,0.1805,0.563,0.0155,0.165,0.1805,0.0954481373889,0.0155,0.165,0.1805,0.0954481373889,0.0155,0.165,0.1805,0.0954481373889,0.0155,0.165,0.1805,0.0954481373889,0.0155,0.165,0.1805,0.0954481373889,0.0155,0.165,0.1805,0.0954481373889
34960000,92.3519250357,109.520709555,83.767532776,0.737,0.172,0.56,0.0095,0.1655,0.175,0.0626267682546,0.0095,0.1655,0.175,0.0626267682546,0.0095,0.1655,0.175,0.0626267682546,0.0095,0.1655,0.175,0.0626267682546,0.0095,0.1655,0.175,0.0626267682546,0.0095,0.1655,0.175,0.0626267682546
34960000,93.2001185056,114.158773024,82.7207912466,0.743,0.182,0.5465,0.014,0.1735,0.1875,0.0815370318088,0.014,0.1735,0.1875,0.0815370318088,0.014,0.1735,0.1875,0.0815370318088,0.014,0.1735,0.1875,0.0815370318088,0.014,0.1735,0.1875,0.0815370318088,0.013,0.1735,0.1865,0.075855213627
34960000,93.3908089959,109.212092277,85.4801673555,0.756,0.177,0.57,0.022,0.169,0.191,0.127159755449,0.022,0.169,0.191,0.127159755449,0.022,0.169,0.191,0.127159755449,0.022,0.169,0.191,0.127159755449,0.022,0.169,0.191,0.127159755449,0.022,0.169,0.191,0.127159755449
34960000,93.4056211411,112.141301412,84.0377810055,0.7225,0.225,0.5245,0.0515,0.221,0.2725,0.263068751238,0.0515,0.221,0.2725,0.263068751238,0.0515,0.221,0.2725,0.263068751238,0.0515,0.221,0.2725,0.263068751238,0.0515,0.221,0.2725,0.263068751238,0.0515,0.221,0.2725,0.263068751238
34960000,93.5342809993,109.015528755,85.7936571214,0.7,0.173,0.518,0.0115,0.1525,0.164,0.0759813103563,0.0115,0.1525,0.164,0.0759813103563,0.0115,0.1525,0.164,0.0759813103563,0.0115,0.1525,0.164,0.0759813103563,0.0115,0.1525,0.164,0.0759813103563,0.0115,0.1525,0.164,0.0759813103563
34960000,93.6133279148,110.690816419,85.0745836627,0.76,0.177,0.581,0.011,0.177,0.188,0.0620059288538,0.011,0.177,0.188,0.0620059288538,0.011,0.177,0.188,0.0620059288538,0.011,0.177,0.188,0.0620059288538,0.011,0.177,0.188,0.0620059288538,0.011,0.177,0.188,0.0620059288538
34960000,93.8284916075,112.623916428,84.4307791972,0.741,0.175,0.568,0.014,0.1625,0.1765,0.0897691981931,0.013,0.1625,0.1755,0.0835191981931,0.013,0.1625,0.1755,0.0835191981931,0.013,0.1625,0.1755,0.0835191981931,0.013,0.1625,0.1755,0.0835191981931,0.013,0.1625,0.1755,0.0835191981931
34960000,94.0657914423,110.862387312,85.6674935073,0.746,0.226,0.57,0.013,0.214,0.227,0.0758689839572,0.013,0.214,0.227,0.0758689839572,0.013,0.214,0.227,0.0758689839572,0.013,0.214,0.227,0.0758689839572,0.013,0.214,0.227,0.0758689839572,0.013,0.214,0.227,0.0758689839572
34960000,94.3612493918,112.768582665,85.1575827553,0.7495,0.178,0.5665,0.008,0.166,0.174,0.0483695652174,0.008,0.166,0.174,0.0483695652174,0.008,0.166,0.174,0.0483695652174,0.008,0.166,0.174,0.0483695652174,0.008,0.166,0.174,0.0483695652174,0.008,0.166,0.174,0.0483695652174
34960000,95.6656275133,115.704040841,85.6464208494,0.7325,0.179,0.5395,0.008,0.172,0.18,0.0465638528139,0.008,0.172,0.18,0.0465638528139,0.008,0.172,0.18,0.0465638528139,0.008,0.172,0.18,0.0465638528139,0.008,0.172,0.18,0.0465638528139,0.008,0.172,0.18,0.0465638528139
34960000,96.1763254748,110.848047242,88.8404645913,0.736,0.252,0.5625,0.009,0.2495,0.2585,0.0384038968278,0.009,0.2495,0.2585,0.0384038968278,0.009,0.2495,0.2585,0.0384038968278,0.009,0.2495,0.2585,0.0384038968278,0.009,0.2495,0.2585,0.0384038968278,0.009,0.2495,0.2585,0.0384038968278
34960000,98.3374113532,118.059754199,88.4762399304,0.7245,0.176,0.549,0.0135,0.161,0.1745,0.0854384408572,0.0135,0.161,0.1745,0.0854384408572,0.0135,0.161,0.1745,0.0854384408572,0.0135,0.161,0.1745,0.0854384408572,0.0135,0.161,0.1745,0.0854384408572,0.0135,0.161,0.1745,0.0854384408572
34960000,98.8004206179,118.738849088,88.8312063829,0.7285,0.172,0.5545,0.0135,0.1425,0.156,0.103895691138,0.0135,0.1425,0.156,0.103895691138,0.0135,0.1425,0.156,0.103895691138,0.0135,0.1425,0.156,0.103895691138,0.0135,0.1425,0.156,0.103895691138,0.0135,0.1425,0.156,0.103895691138
34960000,99.4161641134,119.393625861,89.4274332397,0.723,0.1795,0.545,0.012,0.1735,0.1855,0.072040082502,0.012,0.1715,0.1835,0.0726353205973,0.012,0.1715,0.1835,0.0726353205973,0.012,0.1715,0.1835,0.0726353205973,0.008,0.1715,0.1795,0.0476353205973,0.008,0.1715,0.1795,0.0476353205973
35000000,98.6831266633,124.055141384,85.9971193028,0.6795,0.166,0.5125,0.0125,0.1565,0.169,0.0792919799499,0.0125,0.1565,0.169,0.0792919799499,0.0125,0.1565,0.169,0.0792919799499,0.0125,0.1565,0.169,0.0792919799499,0.0125,0.1565,0.169,0.0792919799499,0.0125,0.1565,0.169,0.0792919799499
35000000,102.570592369,124.757245014,91.4772660466,0.669,0.1735,0.4985,0.022,0.168,0.19,0.131319776715,0.022,0.168,0.19,0.131319776715,0.022,0.168,0.19,0.131319776715,0.022,0.168,0.19,0.131319776715,0.022,0.168,0.19,0.131319776715,0.022,0.168,0.19,0.131319776715
35000000,102.75781877,124.802150246,91.7356530313,0.6765,0.171,0.506,0.0125,0.157,0.1695,0.0834453278919,0.0125,0.157,0.1695,0.0834453278919,0.0125,0.157,0.1695,0.0834453278919,0.0125,0.157,0.1695,0.0834453278919,0.0125,0.157,0.1695,0.0834453278919,0.0125,0.157,0.1695,0.0834453278919
35000000,104.415767173,126.984056491,93.1316225138,0.6615,0.1645,0.4925,0.018,0.1625,0.1805,0.110181704261,0.018,0.1625,0.1805,0.110181704261,0.018,0.1625,0.1805,0.110181704261,0.017,0.1545,0.1715,0.107738095238,0.017,0.1545,0.1715,0.107738095238,0.017,0.1545,0.1715,0.107738095238
35000000,104.860525354,128.529313298,93.0261313819,0.664,0.168,0.496,0.016,0.16,0.176,0.1,0.016,0.16,0.176,0.1,0.016,0.16,0.176,0.1,0.016,0.16,0.176,0.1,0.016,0.16,0.176,0.1,0.016,0.16,0.176,0.1
35000000,107.854576602,125.282504019,99.1406128942,0.683,0.192,0.505,0.0205,0.1875,0.208,0.116734307359,0.0205,0.1875,0.208,0.116734307359,0.0205,0.1875,0.208,0.116734307359,0.0205,0.1875,0.208,0.116734307359,0.0205,0.1875,0.208,0.116734307359,0.0205,0.1875,0.208,0.116734307359
35040000,87.3032915959,129.859997694,66.0249385471,0.753,0.225,0.464,0.017,0.21,0.227,0.0935084541063,0.017,0.21,0.227,0.0935084541063,0.017,0.21,0.227,0.0935084541063,0.015,0.21,0.225,0.0810084541063,0.015,0.21,0.225,0.0810084541063,0.015,0.21,0.225,0.0810084541063
35080000,87.7942736382,136.145683539,63.6185686878,0.788,0.304,0.528,0.016,0.304,0.32,0.0596078431373,0.016,0.304,0.32,0.0596078431373,0.016,0.304,0.32,0.0596078431373,0.016,0.304,0.32,0.0596078431373,0.016,0.304,0.32,0.0596078431373,0.016,0.304,0.32,0.0596078431373
35080000,88.7950712888,137.699743642,64.342735112,0.7715,0.188,0.5765,0.0225,0.172,0.1945,0.135326086957,0.0225,0.172,0.1945,0.135326086957,0.0225,0.172,0.1945,0.135326086957,0.0205,0.172,0.1925,0.124456521739,0.0205,0.172,0.1925,0.124456521739,0.0205,0.172,0.1925,0.124456521739
35080000,90.5280469847,140.692168332,65.4459863112,0.7725,0.1905,0.5855,0.011,0.181,0.192,0.0593083003953,0.011,0.181,0.192,0.0593083003953,0.011,0.181,0.192,0.0593083003953,0.011,0.181,0.192,0.0593083003953,0.011,0.181,0.192,0.0593083003953,0.011,0.181,0.192,0.0593083003953
35080000,91.4820536879,141.105082693,66.6705391853,0.763,0.1895,0.5585,0.012,0.183,0.195,0.065734989648,0.012,0.183,0.195,0.065734989648,0.012,0.183,0.195,0.065734989648,0.011,0.183,0.194,0.0603002070393,0.011,0.183,0.194,0.0603002070393,0.011,0.183,0.194,0.0603002070393
35120000,84.0995557995,131.310904858,60.4938812702,0.8005,0.1975,0.6075,0.0145,0.188,0.2025,0.0782543995859,0.0145,0.188,0.2025,0.0782543995859,0.0145,0.188,0.2025,0.0782543995859,0.014,0.186,0.2,0.0766986636552,0.014,0.1855,0.1995,0.0770692170149,0.014,0.185,0.199,0.0775156455863
35120000,85.3453624193,132.952026819,61.5420302194,0.794,0.195,0.6025,0.013,0.1915,0.2045,0.067821557971,0.013,0.1915,0.2045,0.067821557971,0.013,0.1915,0.2045,0.067821557971,0.012,0.1915,0.2035,0.0626132246377,0.012,0.1915,0.2035,0.0626132246377,0.012,0.1915,0.2035,0.0626132246377
35120000,86.0271548733,133.297028805,62.3922179076,0.7785,0.193,0.5875,0.015,0.1845,0.1995,0.0802865612648,0.015,0.1845,0.1995,0.0802865612648,0.015,0.1845,0.1995,0.0802865612648,0.01,0.1845,0.1945,0.0542448945982,0.01,0.1845,0.1945,0.0542448945982,0.01,0.1845,0.1945,0.0542448945982
35120000,86.0661118949,133.626867392,62.2857341465,0.777,0.1845,0.5895,0.0175,0.177,0.1945,0.103555900621,0.0175,0.177,0.1945,0.103555900621,0.0175,0.177,0.1945,0.103555900621,0.0175,0.175,0.1925,0.104746376812,0.0175,0.175,0.1925,0.104746376812,0.0175,0.175,0.1925,0.104746376812
35120000,86.2755216229,132.218092919,63.3042359748,0.781,0.1995,0.591,0.0265,0.1985,0.225,0.139213466184,0.0265,0.1985,0.225,0.139213466184,0.0265,0.1985,0.225,0.139213466184,0.024,0.1985,0.2225,0.12619263285,0.024,0.1985,0.2225,0.12619263285,0.024,0.1935,0.2175,0.12893386092
35120000,87.4592535154,134.514202994,63.9317787763,0.7905,0.191,0.596,0.0145,0.184,0.1985,0.0771837944664,0.0145,0.184,0.1985,0.0771837944664,0.0145,0.184,0.1985,0.0771837944664,0.0145,0.184,0.1985,0.0771837944664,0.013,0.176,0.189,0.0713043478261,0.013,0.176,0.189,0.0713043478261
35120000,88.145846025,137.078489465,63.6795243047,0.808,0.1915,0.6155,0.0205,0.188,0.2085,0.109508810935,0.0205,0.188,0.2085,0.109508810935,0.0205,0.188,0.2085,0.109508810935,0.0165,0.188,0.2045,0.0877696805007,0.0165,0.188,0.2045,0.0877696805007,0.0165,0.188,0.2045,0.0877696805007
35120000,88.6965847809,137.151695734,64.4690293045,0.7725,0.1975,0.576,0.008,0.172,0.18,0.0468331939799,0.008,0.172,0.18,0.0468331939799,0.008,0.172,0.18,0.0468331939799,0.008,0.16,0.168,0.0512449586858,0.008,0.16,0.168,0.0512449586858,0.008,0.16,0.168,0.0512449586858
35120000,89.4825314406,137.823136356,65.3122289828,0.7545,0.195,0.5145,0.0125,0.186,0.1985,0.0675,0.0125,0.186,0.1985,0.0675,0.0125,0.186,0.1985,0.0675,0.0125,0.186,0.1985,0.0675,0.0125,0.162,0.1745,0.0805296756384,0.0125,0.162,0.1745,0.0805296756384
35120000,89.6303683303,139.121619288,64.8847428513,0.7525,0.196,0.5555,0.0115,0.1875,0.199,0.0615015645586,0.0115,0.1875,0.199,0.0615015645586,0.0115,0.1875,0.199,0.0615015645586,0.0115,0.1875,0.199,0.0615015645586,0.0115,0.1875,0.199,0.0615015645586,0.0115,0.1875,0.199,0.0615015645586
35120000,89.8408197127,139.56142652,64.9805163092,0.773,0.185,0.579,0.013,0.1775,0.1905,0.0732045807453,0.013,0.1775,0.1905,0.0732045807453,0.013,0.1775,0.1905,0.0732045807453,0.013,0.1775,0.1905,0.0732045807453,0.013,0.1775,0.1905,0.0732045807453,0.013,0.1775,0.1905,0.0732045807453
35120000,89.9634743101,138.367622446,65.7614002419,0.7745,0.1925,0.582,0.015,0.1885,0.2035,0.0787182971014,0.015,0.1885,0.2035,0.0787182971014,0.015,0.1885,0.2035,0.0787182971014,0.015,0.1885,0.2035,0.0787182971014,0.015,0.1885,0.2035,0.0787182971014,0.015,0.187,0.202,0.079090320911
35120000,90.111679874,138.388460644,65.9732894891,0.777,0.191,0.589,0.019,0.174,0.193,0.112655279503,0.019,0.174,0.193,0.112655279503,0.019,0.174,0.193,0.112655279503,0.016,0.174,0.19,0.0939052795031,0.016,0.174,0.19,0.0939052795031,0.016,0.174,0.19,0.0939052795031
35120000,90.5502302358,141.243223799,65.2037334542,0.7825,0.1815,0.601,0.013,0.18,0.193,0.0731931112366,0.013,0.18,0.193,0.0731931112366,0.013,0.18,0.193,0.0731931112366,0.013,0.18,0.193,0.0731931112366,0.013,0.18,0.193,0.0731931112366,0.013,0.18,0.193,0.0731931112366
35120000,90.8936096627,141.18623004,65.7472994738,0.7795,0.1935,0.587,0.0375,0.187,0.2245,0.198616600791,0.0375,0.187,0.2245,0.198616600791,0.037,0.175,0.212,0.213756352343,0.037,0.175,0.212,0.213756352343,0.037,0.175,0.212,0.213756352343,0.037,0.175,0.212,0.213756352343
35120000,90.9006222144,139.423477942,66.6391943505,0.762,0.1935,0.575,0.0125,0.187,0.1995,0.0654089026915,0.0125,0.187,0.1995,0.0654089026915,0.0125,0.187,0.1995,0.0654089026915,0.0125,0.187,0.1995,0.0654089026915,0.0125,0.187,0.1995,0.0654089026915,0.0125,0.187,0.1995,0.0654089026915
35120000,90.9598209342,141.206579071,65.8364418659,0.7715,0.1945,0.5785,0.025,0.1855,0.2105,0.137752388011,0.025,0.1855,0.2105,0.137752388011,0.025,0.1855,0.2105,0.137752388011,0.025,0.1855,0.2105,0.137752388011,0.025,0.1855,0.2105,0.137752388011,0.025,0.1855,0.2105,0.137752388011
35120000,91.3455853533,142.268988815,65.8838836225,0.7775,0.1885,0.588,0.015,0.1735,0.1885,0.0875270562771,0.015,0.1735,0.1885,0.0875270562771,0.015,0.1735,0.1885,0.0875270562771,0.015,0.1735,0.1885,0.0875270562771,0.015,0.1735,0.1885,0.0875270562771,0.015,0.1735,0.1885,0.0875270562771
35120000,91.3532306487,140.87708887,66.5913015381,0.7675,0.1875,0.5815,0.0135,0.1505,0.164,0.0901424963925,0.0135,0.1505,0.164,0.0901424963925,0.0135,0.1505,0.164,0.0901424963925,0.0135,0.1505,0.164,0.0901424963925,0.0135,0.1505,0.164,0.0901424963925,0.0135,0.1505,0.164,0.0901424963925
35120000,91.3582335326,141.972281908,66.0512093449,0.784,0.1985,0.589,0.018,0.1935,0.2115,0.0930389492754,0.018,0.1935,0.2115,0.0930389492754,0.018,0.1935,0.2115,0.0930389492754,0.018,0.1935,0.2115,0.0930389492754,0.018,0.1935,0.2115,0.0930389492754,0.018,0.1935,0.2115,0.0930389492754
35120000,91.4287088561,142.8745823,65.705772134,0.7875,0.1855,0.611,0.009,0.1775,0.1865,0.0509140316206,0.009,0.1775,0.1865,0.0509140316206,0.009,0.1775,0.1865,0.0509140316206,0.009,0.1775,0.1865,0.0509140316206,0.009,0.1775,0.1865,0.0509140316206,0.009,0.1775,0.1865,0.0509140316206
35120000,91.4630795025,142.029670981,66.179783763,0.7675,0.1845,0.582,0.012,0.171,0.183,0.0706827592697,0.012,0.171,0.183,0.0706827592697,0.012,0.171,0.183,0.0706827592697,0.012,0.171,0.183,0.0706827592697,0.012,0.171,0.183,0.0706827592697,0.012,0.171,0.183,0.0706827592697
35120000,91.6422580432,142.61993651,66.1534188099,0.7495,0.194,0.589,0.028,0.186,0.214,0.151338932806,0.028,0.186,0.214,0.151338932806,0.028,0.186,0.214,0.151338932806,0.024,0.186,0.21,0.129599802372,0.022,0.186,0.208,0.118730237154,0.022,0.186,0.208,0.118730237154
35120000,91.7410842577,129.881221672,72.6710155506,0.6285,0.184,0.448,0.0545,0.178,0.2325,0.308559194429,0.0305,0.175,0.2055,0.173506807202,0.0305,0.175,0.2055,0.173506807202,0.0305,0.175,0.2055,0.173506807202,0.0305,0.175,0.2055,0.173506807202,0.0305,0.175,0.2055,0.173506807202
35120000,91.8847744455,142.321895471,66.6662139325,0.7685,0.188,0.5845,0.023,0.179,0.202,0.132413940226,0.023,0.178,0.201,0.133071834963,0.023,0.178,0.201,0.133071834963,0.023,0.178,0.201,0.133071834963,0.023,0.178,0.201,0.133071834963,0.023,0.178,0.201,0.133071834963
35120000,91.9553186337,142.269149165,66.7984033679,0.768,0.1815,0.587,0.013,0.1705,0.1835,0.0808570958027,0.013,0.1705,0.1835,0.0808570958027,0.013,0.1705,0.1835,0.0808570958027,0.013,0.1705,0.1835,0.0808570958027,0.013,0.1705,0.1835,0.0808570958027,0.013,0.1705,0.1835,0.0808570958027
35120000,92.151174926,142.440351079,67.0065868496,0.7675,0.19,0.5235,0.014,0.178,0.192,0.0773332093852,0.014,0.178,0.192,0.0773332093852,0.014,0.178,0.192,0.0773332093852,0.014,0.178,0.192,0.0773332093852,0.014,0.178,0.192,0.0773332093852,0.0135,0.178,0.1915,0.0758088191413
35120000,92.2151966651,143.124555316,66.7605173395,0.778,0.189,0.5845,0.0155,0.1805,0.196,0.0809763605959,0.0125,0.1805,0.193,0.0665532836728,0.0125,0.1805,0.193,0.0665532836728,0.0125,0.1805,0.193,0.0665532836728,0.0125,0.1805,0.193,0.0665532836728,0.0125,0.1805,0.193,0.0665532836728
35120000,92.251565515,142.592171394,67.0812625752,0.734,0.198,0.543,0.02,0.196,0.216,0.102608695652,0.02,0.196,0.216,0.102608695652,0.02,0.196,0.216,0.102608695652,0.02,0.196,0.216,0.102608695652,0.02,0.196,0.216,0.102608695652,0.0185,0.196,0.2145,0.0944565217391
35120000,92.407226847,143.05858965,67.0815454454,0.774,0.1925,0.5755,0.0455,0.182,0.2275,0.248221343874,0.0455,0.182,0.2275,0.248221343874,0.0455,0.182,0.2275,0.248221343874,0.0455,0.182,0.2275,0.248221343874,0.0455,0.182,0.2275,0.248221343874,0.0455,0.1815,0.227,0.248356625259
35120000,92.4949868372,144.006104545,66.7394279831,0.786,0.1865,0.58,0.0345,0.1765,0.211,0.197399068323,0.0345,0.1765,0.211,0.197399068323,0.0345,0.1765,0.211,0.197399068323,0.0335,0.1765,0.21,0.19219073499,0.0335,0.1765,0.21,0.19219073499,0.0335,0.1765,0.21,0.19219073499
35120000,92.5959592214,143.538302491,67.1247875865,0.7755,0.25,0.5605,0.0155,0.2405,0.256,0.0754662602232,0.0135,0.2405,0.254,0.0641026238596,0.0135,0.2405,0.254,0.0641026238596,0.0135,0.2405,0.254,0.0641026238596,0.0135,0.2405,0.254,0.0641026238596,0.0125,0.2405,0.253,0.0584208056778
35120000,93.2902964152,142.256915051,68.8069870972,0.755,0.187,0.5605,0.017,0.1855,0.2025,0.0915242094862,0.017,0.1855,0.2025,0.0915242094862,0.017,0.1855,0.2025,0.0915242094862,0.017,0.1855,0.2025,0.0915242094862,0.017,0.1855,0.2025,0.0915242094862,0.017,0.1855,0.2025,0.0915242094862
35120000,93.3670597113,145.449447156,67.3258659892,0.7785,0.185,0.5895,0.0195,0.1815,0.201,0.10744812253,0.0195,0.1815,0.201,0.10744812253,0.0195,0.1815,0.201,0.10744812253,0.0195,0.1805,0.2,0.108489789196,0.0195,0.1805,0.2,0.108489789196,0.0195,0.1805,0.2,0.108489789196
35120000,93.4121978328,145.041933201,67.597330149,0.7705,0.1895,0.5895,0.0105,0.1875,0.198,0.0561417748918,0.0105,0.1875,0.198,0.0561417748918,0.0105,0.1875,0.198,0.0561417748918,0.0105,0.1875,0.198,0.0561417748918,0.0105,0.1875,0.198,0.0561417748918,0.0105,0.1875,0.198,0.0561417748918
35120000,93.695241762,144.664952873,68.2103862065,0.762,0.188,0.5745,0.019,0.1845,0.2035,0.105012175325,0.019,0.1845,0.2035,0.105012175325,0.019,0.1845,0.2035,0.105012175325,0.017,0.1845,0.2015,0.093648538961,0.017,0.1845,0.2015,0.093648538961,0.017,0.1845,0.2015,0.093648538961
35120000,93.8447333478,145.676247218,67.9289764124,0.7925,0.1835,0.5995,0.0155,0.1745,0.19,0.0886431277056,0.0155,0.1745,0.19,0.0886431277056,0.0155,0.1745,0.19,0.0886431277056,0.0155,0.1745,0.19,0.0886431277056,0.0155,0.1745,0.19,0.0886431277056,0.0155,0.1745,0.19,0.0886431277056
35120000,94.0822369627,145.942804379,68.1519532546,0.7515,0.1905,0.5555,0.0165,0.1685,0.185,0.0989095763123,0.0165,0.1685,0.185,0.0989095763123,0.0165,0.1685,0.185,0.0989095763123,0.0165,0.1685,0.185,0.0989095763123,0.0165,0.1685,0.185,0.0989095763123,0.0165,0.1685,0.185,0.0989095763123
35120000,94.1999982669,146.219417523,68.190288639,0.756,0.181,0.569,0.02,0.1585,0.1785,0.130859434683,0.02,0.1585,0.1785,0.130859434683,0.02,0.1585,0.1785,0.130859434683,0.02,0.1585,0.1785,0.130859434683,0.02,0.1585,0.1785,0.130859434683,0.02,0.1585,0.1785,0.130859434683
35120000,94.3904895152,146.636744492,68.2673620269,0.7725,0.1855,0.579,0.0095,0.18,0.1895,0.0525866977226,0.0095,0.18,0.1895,0.0525866977226,0.0095,0.18,0.1895,0.0525866977226,0.0095,0.18,0.1895,0.0525866977226,0.0095,0.18,0.1895,0.0525866977226,0.0095,0.18,0.1895,0.0525866977226
35120000,94.7179580618,148.518162263,67.817855961,0.794,0.169,0.62,0.009,0.1555,0.1645,0.0576559770639,0.009,0.1555,0.1645,0.0576559770639,0.009,0.1555,0.1645,0.0576559770639,0.009,0.1555,0.1645,0.0576559770639,0.009,0.1555,0.1645,0.0576559770639,0.009,0.1555,0.1645,0.0576559770639
35120000,94.8478320302,146.302012111,69.1207419899,0.754,0.18,0.546,0.012,0.156,0.168,0.0842391304348,0.012,0.156,0.168,0.0842391304348,0.012,0.156,0.168,0.0842391304348,0.012,0.156,0.168,0.0842391304348,0.012,0.156,0.168,0.0842391304348,0.012,0.156,0.168,0.0842391304348
35120000,94.8558183394,146.616786729,68.9753341447,0.7795,0.185,0.588,0.0115,0.1715,0.183,0.0670451604555,0.0115,0.1715,0.183,0.0670451604555,0.0115,0.1715,0.183,0.0670451604555,0.0115,0.1715,0.183,0.0670451604555,0.0115,0.1715,0.183,0.0670451604555,0.0115,0.1715,0.183,0.0670451604555
35120000,94.8850046738,146.314639681,69.1701871702,0.757,0.1875,0.571,0.0175,0.161,0.1785,0.110185413922,0.0175,0.161,0.1785,0.110185413922,0.0135,0.161,0.1745,0.0874581411946,0.0135,0.161,0.1745,0.0874581411946,0.0135,0.161,0.1745,0.0874581411946,0.0135,0.161,0.1745,0.0874581411946
35120000,94.936175598,145.625950649,69.5912880725,0.7595,0.193,0.564,0.018,0.179,0.197,0.103160278413,0.018,0.179,0.197,0.103160278413,0.018,0.179,0.197,0.103160278413,0.018,0.179,0.197,0.103160278413,0.018,0.179,0.197,0.103160278413,0.018,0.179,0.197,0.103160278413
35120000,95.0224715158,147.45948524,68.8039646536,0.7715,0.1885,0.582,0.023,0.184,0.207,0.126670431018,0.023,0.184,0.207,0.126670431018,0.023,0.184,0.207,0.126670431018,0.023,0.184,0.207,0.126670431018,0.023,0.184,0.207,0.126670431018,0.023,0.184,0.207,0.126670431018
35120000,95.1733621428,145.976864364,69.7716110321,0.7595,0.1935,0.566,0.0275,0.1885,0.216,0.142653985507,0.0275,0.1885,0.216,0.142653985507,0.0195,0.1885,0.208,0.102653985507,0.0195,0.1885,0.208,0.102653985507,0.0195,0.1885,0.208,0.102653985507,0.0195,0.1885,0.208,0.102653985507
35120000,95.192191296,147.454092407,69.0612407407,0.748,0.196,0.555,0.015,0.1945,0.2095,0.0781151185771,0.0145,0.1945,0.209,0.0752742094862,0.0125,0.1945,0.207,0.0648575428195,0.0125,0.1945,0.207,0.0648575428195,0.0125,0.1945,0.207,0.0648575428195,0.0125,0.1945,0.207,0.0648575428195
35120000,95.6009711005,146.157674002,70.3226196496,0.7365,0.183,0.545,0.0265,0.1795,0.206,0.146042137211,0.0265,0.1715,0.198,0.153617894786,0.0265,0.1715,0.198,0.153617894786,0.0265,0.1715,0.198,0.153617894786,0.0265,0.1715,0.198,0.153617894786,0.0265,0.1715,0.198,0.153617894786
35120000,95.6205071257,147.870308292,69.4956065425,0.7645,0.186,0.577,0.035,0.1795,0.2145,0.188990447958,0.035,0.1795,0.2145,0.188990447958,0.032,0.1795,0.2115,0.172686100132,0.012,0.1795,0.1915,0.0685194334651,0.012,0.1795,0.1915,0.0685194334651,0.012,0.1795,0.1915,0.0685194334651
35120000,96.821031845,147.778940377,71.3420775789,0.7555,0.184,0.558,0.0485,0.181,0.2295,0.271420042819,0.0485,0.181,0.2295,0.271420042819,0.0485,0.181,0.2295,0.271420042819,0.0485,0.181,0.2295,0.271420042819,0.0485,0.181,0.2295,0.271420042819,0.0485,0.181,0.2295,0.271420042819
35120000,96.8910109625,149.751719849,70.4606565193,0.766,0.176,0.589,0.0095,0.175,0.1845,0.0542478354978,0.0095,0.174,0.1835,0.0545454545455,0.0095,0.173,0.1825,0.0548295454545,0.0095,0.173,0.1825,0.0548295454545,0.0095,0.173,0.1825,0.0548295454545,0.0095,0.173,0.1825,0.0548295454545
35120000,96.9417052038,149.606571886,70.6092718628,0.7405,0.184,0.5645,0.0325,0.1335,0.166,0.26844790253,0.0325,0.1335,0.166,0.26844790253,0.0325,0.1335,0.166,0.26844790253,0.0205,0.1335,0.154,0.161305045387,0.0195,0.1335,0.153,0.155623227205,0.0195,0.1335,0.153,0.155623227205
35120000,96.9527392018,149.633602799,70.6123074034,0.755,0.177,0.5775,0.0195,0.1715,0.191,0.117697777051,0.0195,0.1715,0.191,0.117697777051,0.0195,0.1715,0.191,0.117697777051,0.0195,0.1715,0.191,0.117697777051,0.0195,0.1715,0.191,0.117697777051,0.0195,0.1715,0.191,0.117697777051
35120000,97.967492541,150.288407756,71.8070349332,0.7575,0.1835,0.5765,0.026,0.1645,0.1905,0.159595429081,0.014,0.1645,0.1785,0.0845954290807,0.014,0.1645,0.1785,0.0845954290807,0.013,0.1645,0.1775,0.0789136108989,0.009,0.163,0.172,0.0585497835498,0.009,0.163,0.172,0.0585497835498
35120000,98.4329618893,149.592774084,72.8530557921,0.7445,0.185,0.5645,0.02,0.175,0.195,0.114052206851,0.02,0.175,0.195,0.114052206851,0.02,0.175,0.195,0.114052206851,0.02,0.175,0.195,0.114052206851,0.02,0.175,0.195,0.114052206851,0.02,0.175,0.195,0.114052206851
35200000,86.0930987543,133.166825617,62.556235323,0.7535,0.1985,0.5555,0.02,0.186,0.206,0.104393939394,0.02,0.186,0.206,0.104393939394,0.018,0.186,0.204,0.0943939393939,0.014,0.186,0.2,0.0743939393939,0.014,0.186,0.2,0.0743939393939,0.014,0.186,0.2,0.0743939393939
35200000,86.9200829453,131.881604914,64.439321961,0.656,0.196,0.484,0.02,0.184,0.204,0.10380952381,0.02,0.184,0.204,0.10380952381,0.02,0.184,0.204,0.10380952381,0.02,0.184,0.204,0.10380952381,0.02,0.184,0.204,0.10380952381,0.02,0.184,0.204,0.10380952381
35200000,89.7611123286,139.08842536,65.097455813,0.7895,0.202,0.589,0.02,0.1995,0.2195,0.100256202131,0.02,0.1995,0.2195,0.100256202131,0.02,0.1995,0.2195,0.100256202131,0.02,0.1995,0.2195,0.100256202131,0.02,0.1995,0.2195,0.100256202131,0.02,0.1995,0.2195,0.100256202131
35200000,90.5064262682,137.788221014,66.8655288951,0.747,0.2075,0.554,0.014,0.197,0.211,0.0720867673993,0.014,0.197,0.211,0.0720867673993,0.014,0.197,0.211,0.0720867673993,0.014,0.197,0.211,0.0720867673993,0.014,0.197,0.211,0.0720867673993,0.014,0.197,0.211,0.0720867673993
35200000,91.1859626887,142.397195785,65.5803461408,0.8065,0.1925,0.6185,0.0195,0.1885,0.208,0.105537587413,0.0195,0.1885,0.208,0.105537587413,0.0195,0.1885,0.208,0.105537587413,0.0195,0.1885,0.208,0.105537587413,0.0195,0.1885,0.208,0.105537587413,0.0195,0.1885,0.208,0.105537587413
35200000,91.1936458424,142.980026156,65.3004556855,0.823,0.206,0.623,0.0135,0.203,0.2165,0.0663782051282,0.0135,0.203,0.2165,0.0663782051282,0.0135,0.203,0.2165,0.0663782051282,0.0135,0.203,0.2165,0.0663782051282,0.0135,0.203,0.2165,0.0663782051282,0.0135,0.203,0.2165,0.0663782051282
35200000,91.4513050762,140.283447771,67.0352337289,0.7595,0.206,0.5625,0.015,0.2025,0.2175,0.0750630890848,0.015,0.2025,0.2175,0.0750630890848,0.013,0.2025,0.2155,0.0654477044694,0.013,0.2025,0.2155,0.0654477044694,0.011,0.2015,0.2125,0.0565734265734,0.011,0.2015,0.2125,0.0565734265734
35200000,91.743042359,143.545724801,65.8417011381,0.81,0.194,0.613,0.0295,0.1855,0.215,0.156451745718,0.0295,0.1855,0.215,0.156451745718,0.0295,0.1855,0.215,0.156451745718,0.0295,0.1855,0.215,0.156451745718,0.0295,0.1855,0.215,0.156451745718,0.0295,0.1855,0.215,0.156451745718
35200000,92.1959692393,141.185684862,67.7011114281,0.7545,0.2005,0.5605,0.0145,0.1835,0.198,0.0777558401743,0.0145,0.1815,0.196,0.0782293250228,0.0145,0.1815,0.196,0.0782293250228,0.0145,0.1815,0.196,0.0782293250228,0.0145,0.181,0.1955,0.0786459916895,0.0145,0.181,0.1955,0.0786459916895
35200000,92.5734501471,145.124288318,66.2980310618,0.805,0.1945,0.6015,0.0175,0.1805,0.198,0.096369812253,0.0175,0.1805,0.198,0.096369812253,0.0175,0.1805,0.198,0.096369812253,0.0175,0.1805,0.198,0.096369812253,0.0175,0.1805,0.198,0.096369812253,0.0175,0.1805,0.198,0.096369812253
35200000,93.7640188021,142.500733483,69.3956614616,0.744,0.1955,0.5515,0.01,0.1905,0.2005,0.0523641304348,0.01,0.1905,0.2005,0.0523641304348,0.01,0.1905,0.2005,0.0523641304348,0.01,0.1905,0.2005,0.0523641304348,0.01,0.1905,0.2005,0.0523641304348,0.01,0.1905,0.2005,0.0523641304348
35200000,93.7781625562,144.536743454,68.3988721075,0.782,0.1985,0.5855,0.026,0.1915,0.2175,0.135601309922,0.026,0.1915,0.2175,0.135601309922,0.025,0.1915,0.2165,0.130601309922,0.025,0.1915,0.2165,0.130601309922,0.025,0.1915,0.2165,0.130601309922,0.025,0.1915,0.2165,0.130601309922
35200000,93.8183303902,144.11052497,68.6722331001,0.7665,0.2055,0.559,0.028,0.1955,0.2235,0.137269320354,0.028,0.1955,0.2235,0.137269320354,0.028,0.1955,0.2235,0.137269320354,0.028,0.1955,0.2235,0.137269320354,0.028,0.1955,0.2235,0.137269320354,0.028,0.1955,0.2235,0.137269320354
35200000,93.9958857112,144.76260968,68.6125237267,0.7635,0.204,0.5615,0.017,0.195,0.212,0.0862580128205,0.017,0.195,0.212,0.0862580128205,0.017,0.195,0.212,0.0862580128205,0.017,0.1945,0.2115,0.0863541666667,0.017,0.1785,0.1955,0.0905208333333,0.017,0.1785,0.1955,0.0905208333333
35200000,94.2591594617,143.831171057,69.4731536642,0.7675,0.1915,0.5705,0.016,0.1915,0.2075,0.083455615942,0.016,0.1915,0.2075,0.083455615942,0.016,0.1915,0.2075,0.083455615942,0.016,0.1915,0.2075,0.083455615942,0.016,0.1915,0.2075,0.083455615942,0.016,0.1915,0.2075,0.083455615942
35200000,94.2704811219,143.15347695,69.8289832078,0.746,0.1955,0.541,0.011,0.1755,0.1865,0.0616282894737,0.011,0.1715,0.1825,0.0630902777778,0.011,0.1715,0.1825,0.0630902777778,0.011,0.1715,0.1825,0.0630902777778,0.011,0.1715,0.1825,0.0630902777778,0.011,0.1715,0.1825,0.0630902777778
35200000,94.3886651753,144.224801684,69.4705969209,0.776,0.1975,0.576,0.018,0.1915,0.2095,0.0984375,0.016,0.1915,0.2075,0.0865327380952,0.016,0.1915,0.2075,0.0865327380952,0.016,0.1915,0.2075,0.0865327380952,0.013,0.1915,0.2045,0.0686755952381,0.013,0.1915,0.2045,0.0686755952381
35200000,94.6534320687,144.161449349,69.8994234289,0.829,0.1935,0.6365,0.03,0.1925,0.2225,0.155339673913,0.03,0.1925,0.2225,0.155339673913,0.03,0.1925,0.2225,0.155339673913,0.03,0.1925,0.2225,0.155339673913,0.03,0.1925,0.2225,0.155339673913,0.03,0.1925,0.2225,0.155339673913
35200000,95.0267069937,146.365442495,69.3573392431,0.7615,0.2005,0.556,0.0235,0.1965,0.22,0.120932274247,0.0235,0.1965,0.22,0.120932274247,0.023,0.1965,0.2195,0.118214882943,0.023,0.1965,0.2195,0.118214882943,0.021,0.1965,0.2175,0.107345317726,0.021,0.1965,0.2175,0.107345317726
35200000,95.2194687291,146.155108661,69.7516487631,0.769,0.2,0.5655,0.01,0.1975,0.2075,0.0505583003953,0.01,0.1975,0.2075,0.0505583003953,0.01,0.1975,0.2075,0.0505583003953,0.01,0.1975,0.2075,0.0505583003953,0.01,0.1975,0.2075,0.0505583003953,0.01,0.1975,0.2075,0.0505583003953
35200000,95.4989302975,146.599013149,69.9488888715,0.76,0.191,0.53,0.016,0.184,0.2,0.087233201581,0.016,0.184,0.2,0.087233201581,0.016,0.184,0.2,0.087233201581,0.016,0.184,0.2,0.087233201581,0.016,0.184,0.2,0.087233201581,0.016,0.184,0.2,0.087233201581
35200000,95.5239537773,148.54473576,69.0135627859,0.7795,0.1895,0.585,0.018,0.1725,0.1905,0.102300196915,0.018,0.1725,0.1905,0.102300196915,0.018,0.1725,0.1905,0.102300196915,0.018,0.1725,0.1905,0.102300196915,0.018,0.1725,0.1905,0.102300196915,0.014,0.1725,0.1865,0.0805610664798
35200000,95.550235693,146.830498641,69.9101042187,0.7565,0.1905,0.5695,0.0175,0.1815,0.199,0.09586352657,0.0175,0.1815,0.199,0.09586352657,0.0175,0.1815,0.199,0.09586352657,0.0175,0.1815,0.199,0.09586352657,0.0175,0.1815,0.199,0.09586352657,0.0175,0.1815,0.199,0.09586352657
35200000,95.6811723203,146.93462839,70.0544442852,0.757,0.2575,0.554,0.01,0.2505,0.2605,0.0444363154961,0.01,0.2505,0.2605,0.0444363154961,0.01,0.2505,0.2605,0.0444363154961,0.01,0.2505,0.2605,0.0444363154961,0.01,0.2505,0.2605,0.0444363154961,0.01,0.2505,0.2605,0.0444363154961
35200000,95.8094251198,145.858775609,70.784749875,0.758,0.2025,0.5545,0.0165,0.19,0.2065,0.088134057971,0.0165,0.19,0.2065,0.088134057971,0.0165,0.19,0.2065,0.088134057971,0.0165,0.19,0.2065,0.088134057971,0.0165,0.19,0.2065,0.088134057971,0.0165,0.19,0.2065,0.088134057971
35200000,96.3259606258,147.643121983,70.6673799473,0.752,0.193,0.5615,0.011,0.193,0.204,0.056875,0.011,0.193,0.204,0.056875,0.011,0.193,0.204,0.056875,0.011,0.193,0.204,0.056875,0.0105,0.193,0.2035,0.054375,0.0105,0.193,0.2035,0.054375
35200000,96.4812575191,146.704935067,71.3694187454,0.715,0.186,0.5325,0.021,0.1795,0.2005,0.118464673913,0.021,0.1795,0.2005,0.118464673913,0.02,0.1795,0.1995,0.11325634058,0.018,0.1795,0.1975,0.10075634058,0.018,0.1795,0.1975,0.10075634058,0.018,0.1795,0.1975,0.10075634058
35200000,97.0130473774,147.954799971,71.5421710805,0.746,0.1965,0.5475,0.019,0.184,0.203,0.103880720729,0.019,0.182,0.201,0.105596967868,0.019,0.182,0.201,0.105596967868,0.019,0.181,0.2,0.10675795858,0.019,0.181,0.2,0.10675795858,0.019,0.181,0.2,0.10675795858
35200000,97.6490288495,148.291802305,72.3276421218,0.7435,0.197,0.54,0.011,0.1825,0.1935,0.060009057971,0.011,0.1825,0.1935,0.060009057971,0.011,0.1825,0.1935,0.060009057971,0.011,0.1825,0.1935,0.060009057971,0.011,0.1825,0.1935,0.060009057971,0.011,0.1825,0.1935,0.060009057971
35200000,97.7292459766,147.919316042,72.6342109437,0.7085,0.2345,0.4875,0.0225,0.23,0.2525,0.10426171202,0.0225,0.23,0.2525,0.10426171202,0.0225,0.23,0.2525,0.10426171202,0.022,0.23,0.252,0.101857865866,0.022,0.23,0.252,0.101857865866,0.0215,0.23,0.2515,0.0994540197122
35200000,97.7400046711,149.685550114,71.7672319497,0.727,0.1935,0.5265,0.0125,0.19,0.2025,0.0662897609637,0.0125,0.19,0.2025,0.0662897609637,0.0125,0.19,0.2025,0.0662897609637,0.0125,0.19,0.2025,0.0662897609637,0.0125,0.19,0.2025,0.0662897609637,0.0125,0.19,0.2025,0.0662897609637
35200000,97.8658994015,148.825598753,72.386049726,0.736,0.201,0.5355,0.0205,0.1965,0.217,0.108643648019,0.0205,0.1965,0.217,0.108643648019,0.0205,0.1965,0.217,0.108643648019,0.0205,0.1965,0.217,0.108643648019,0.02,0.1965,0.2165,0.106143648019,0.02,0.196,0.216,0.106596546569
35200000,98.0018306654,149.647657234,72.1789173809,0.743,0.195,0.54,0.015,0.182,0.197,0.0838432400932,0.015,0.182,0.197,0.0838432400932,0.015,0.182,0.197,0.0838432400932,0.015,0.182,0.197,0.0838432400932,0.015,0.182,0.197,0.0838432400932,0.015,0.182,0.197,0.0838432400932
