ID,mbp,sbp,dbp,cp,sut,dt,dt10,st10,st10_p_dt10,st10_d_dt10,dt25,st25,st25_p_dt25,st25_d_dt25,dt33,st33,st33_p_dt33,st33_d_dt33,dt50,st50,st50_p_dt50,st50_d_dt50,dt66,st66,st66_p_dt66,st66_d_dt66,dt75,st75,st75_p_dt75,st75_d_dt75
34040000,92.6877961936,128.258232264,74.9025781585,0.778,0.232,0.5675,0.016,0.2265,0.2425,0.0744597868217,0.016,0.2265,0.2425,0.0744597868217,0.016,0.2265,0.2425,0.0744597868217,0.016,0.2265,0.2425,0.0744597868217,0.016,0.2265,0.2425,0.0744597868217,0.016,0.2265,0.2425,0.0744597868217
34040000,93.9012148571,129.093798669,76.3049229514,0.7195,0.1975,0.507,0.013,0.191,0.204,0.0669565217391,0.013,0.191,0.204,0.0669565217391,0.013,0.191,0.204,0.0669565217391,0.013,0.191,0.204,0.0669565217391,0.013,0.191,0.204,0.0669565217391,0.013,0.191,0.204,0.0669565217391
34040000,94.9217778656,132.554617224,76.1053581861,0.7545,0.207,0.553,0.0135,0.2025,0.216,0.067289481352,0.0135,0.2025,0.216,0.067289481352,0.0135,0.2025,0.216,0.067289481352,0.0135,0.2025,0.216,0.067289481352,0.0135,0.2025,0.216,0.067289481352,0.0135,0.2025,0.216,0.067289481352
34040000,95.3811303799,133.775235528,76.1840778061,0.7635,0.205,0.565,0.02,0.1915,0.2115,0.102576672522,0.02,0.1915,0.2115,0.102576672522,0.016,0.1915,0.2075,0.0825766725223,0.016,0.1915,0.2075,0.0825766725223,0.016,0.1915,0.2075,0.0825766725223,0.016,0.1915,0.2075,0.0825766725223
34040000,95.8746819822,134.214906516,76.7045697153,0.746,0.2015,0.475,0.0135,0.1995,0.213,0.0672791600509,0.0135,0.1995,0.213,0.0672791600509,0.0135,0.1995,0.213,0.0672791600509,0.0135,0.1995,0.213,0.0672791600509,0.0135,0.1995,0.213,0.0672791600509,0.012,0.1995,0.2115,0.0603347156065
34040000,96.8076979056,134.367833265,78.0276302261,0.7395,0.2055,0.541,0.026,0.2015,0.2275,0.129334935897,0.026,0.2015,0.2275,0.129334935897,0.026,0.2015,0.2275,0.129334935897,0.026,0.2015,0.2275,0.129334935897,0.026,0.2015,0.2275,0.129334935897,0.026,0.2015,0.2275,0.129334935897
34040000,97.3175458632,136.47050988,77.741063855,0.754,0.2185,0.553,0.0215,0.21,0.2315,0.099177974803,0.0215,0.21,0.2315,0.099177974803,0.0215,0.21,0.2315,0.099177974803,0.0215,0.21,0.2315,0.099177974803,0.0215,0.21,0.2315,0.099177974803,0.0215,0.21,0.2315,0.099177974803
34040000,97.3259904811,136.591162414,77.6934045146,0.7735,0.2135,0.486,0.019,0.205,0.224,0.0988243006993,0.019,0.205,0.224,0.0988243006993,0.019,0.205,0.224,0.0988243006993,0.019,0.205,0.224,0.0988243006993,0.019,0.205,0.224,0.0988243006993,0.019,0.205,0.224,0.0988243006993
34040000,97.3790401956,136.908243797,77.6144383948,0.7695,0.2245,0.5165,0.012,0.2245,0.2365,0.0511728896104,0.012,0.2245,0.2365,0.0511728896104,0.012,0.2245,0.2365,0.0511728896104,0.012,0.2245,0.2365,0.0511728896104,0.012,0.2245,0.2365,0.0511728896104,0.012,0.2245,0.2365,0.0511728896104
34040000,97.5716550277,136.969460399,77.8727523421,0.733,0.29,0.495,0.024,0.269,0.293,0.0952146690519,0.024,0.269,0.293,0.0952146690519,0.024,0.269,0.293,0.0952146690519,0.024,0.269,0.293,0.0952146690519,0.024,0.269,0.293,0.0952146690519,0.024,0.269,0.293,0.0952146690519
34040000,97.8214682563,136.158923275,78.6527407471,0.7585,0.214,0.5505,0.02,0.206,0.226,0.0991938405797,0.02,0.206,0.226,0.0991938405797,0.02,0.206,0.226,0.0991938405797,0.02,0.206,0.226,0.0991938405797,0.02,0.206,0.226,0.0991938405797,0.02,0.206,0.226,0.0991938405797
34040000,98.0378820294,137.589099452,78.2622733181,0.7445,0.24,0.4645,0.0235,0.238,0.2615,0.0916838369963,0.0235,0.234,0.2575,0.0932342245932,0.0235,0.234,0.2575,0.0932342245932,0.0235,0.234,0.2575,0.0932342245932,0.0235,0.233,0.2565,0.0936188399779,0.0235,0.233,0.2565,0.0936188399779
34040000,98.3383807053,138.101697886,78.4567221149,0.7215,0.2065,0.521,0.016,0.201,0.217,0.0820476398601,0.016,0.201,0.217,0.0820476398601,0.016,0.201,0.217,0.0820476398601,0.016,0.201,0.217,0.0820476398601,0.016,0.201,0.217,0.0820476398601,0.016,0.201,0.217,0.0820476398601
34040000,98.4484729173,138.768680925,78.2883689136,0.8015,0.202,0.4815,0.023,0.191,0.214,0.123439115233,0.019,0.191,0.21,0.101699984798,0.019,0.191,0.21,0.101699984798,0.019,0.191,0.21,0.101699984798,0.019,0.191,0.21,0.101699984798,0.019,0.191,0.21,0.101699984798
34040000,99.0551942644,138.211931902,79.4768254455,0.7325,0.245,0.5115,0.0145,0.239,0.2535,0.0666513912034,0.0145,0.239,0.2535,0.0666513912034,0.0145,0.239,0.2535,0.0666513912034,0.0145,0.239,0.2535,0.0666513912034,0.0145,0.239,0.2535,0.0666513912034,0.0145,0.239,0.2535,0.0666513912034
34040000,99.2183062743,139.331176165,79.1618713287,0.737,0.2055,0.5425,0.011,0.199,0.21,0.055625,0.011,0.199,0.21,0.055625,0.011,0.199,0.21,0.055625,0.011,0.199,0.21,0.055625,0.011,0.199,0.21,0.055625,0.011,0.199,0.21,0.055625
34040000,100.202732561,140.932857234,79.8376702238,0.725,0.2035,0.488,0.0145,0.2025,0.217,0.071818019943,0.0145,0.2025,0.217,0.071818019943,0.0145,0.2025,0.217,0.071818019943,0.0145,0.2025,0.217,0.071818019943,0.0145,0.2025,0.217,0.071818019943,0.0145,0.2025,0.217,0.071818019943
34040000,100.220664399,140.156998289,80.2524974532,0.6905,0.283,0.4595,0.014,0.278,0.292,0.0533271257728,0.014,0.278,0.292,0.0533271257728,0.014,0.278,0.292,0.0533271257728,0.014,0.278,0.292,0.0533271257728,0.014,0.278,0.292,0.0533271257728,0.014,0.278,0.292,0.0533271257728
34040000,100.258044938,141.703856397,79.535139208,0.7605,0.175,0.564,0.013,0.168,0.181,0.0744705513784,0.013,0.168,0.181,0.0744705513784,0.013,0.168,0.181,0.0744705513784,0.009,0.168,0.177,0.0536372180451,0.009,0.168,0.177,0.0536372180451,0.009,0.168,0.177,0.0536372180451
34040000,101.872435268,143.842194785,80.8875555097,0.7455,0.1965,0.54,0.009,0.1955,0.2045,0.0460778985507,0.009,0.1955,0.2045,0.0460778985507,0.009,0.1955,0.2045,0.0460778985507,0.009,0.1955,0.2045,0.0460778985507,0.009,0.1955,0.2045,0.0460778985507,0.009,0.1955,0.2045,0.0460778985507
34080000,91.262235257,104.34298858,84.7218585957,0.92,0.344,0.696,0.008,0.328,0.336,0.0243902439024,0.008,0.328,0.336,0.0243902439024,0.008,0.328,0.336,0.0243902439024,0.008,0.328,0.336,0.0243902439024,0.008,0.328,0.336,0.0243902439024,0.008,0.328,0.336,0.0243902439024
34120000,96.7177313834,130.031112624,80.0610407629,0.784,0.203,0.5825,0.022,0.1985,0.2205,0.112467948718,0.022,0.1985,0.2205,0.112467948718,0.022,0.1985,0.2205,0.112467948718,0.022,0.1985,0.2205,0.112467948718,0.01,0.1985,0.2085,0.0499679487179,0.01,0.1985,0.2085,0.0499679487179
34120000,98.1979771621,132.479307369,81.0573120588,0.7925,0.204,0.5865,0.027,0.1905,0.2175,0.141246706192,0.027,0.1905,0.2175,0.141246706192,0.027,0.1905,0.2175,0.141246706192,0.015,0.1905,0.2055,0.0787467061924,0.015,0.1905,0.2055,0.0787467061924,0.015,0.1905,0.2055,0.0787467061924
34120000,98.909231441,141.046659332,77.8405174954,0.765,0.1985,0.558,0.019,0.1835,0.2025,0.105876145913,0.019,0.1835,0.2025,0.105876145913,0.019,0.1835,0.2025,0.105876145913,0.019,0.1835,0.2025,0.105876145913,0.019,0.1835,0.2025,0.105876145913,0.019,0.1835,0.2025,0.105876145913
34120000,99.3901705105,133.977806412,82.0963525598,0.778,0.211,0.568,0.0155,0.1965,0.212,0.0822264239384,0.0155,0.1965,0.212,0.0822264239384,0.0155,0.1965,0.212,0.0822264239384,0.0155,0.1965,0.212,0.0822264239384,0.0155,0.1965,0.212,0.0822264239384,0.0155,0.1965,0.212,0.0822264239384
34120000,99.7059490066,135.294088836,81.9118790919,0.758,0.206,0.551,0.016,0.197,0.213,0.0815496098105,0.016,0.197,0.213,0.0815496098105,0.016,0.197,0.213,0.0815496098105,0.016,0.197,0.213,0.0815496098105,0.016,0.197,0.213,0.0815496098105,0.016,0.1965,0.2125,0.0816537764771
34120000,100.061363744,139.722127542,80.2309818445,0.7665,0.204,0.567,0.0265,0.1985,0.225,0.135475040258,0.0265,0.1985,0.225,0.135475040258,0.0265,0.1985,0.225,0.135475040258,0.0265,0.1985,0.225,0.135475040258,0.0265,0.1985,0.225,0.135475040258,0.0265,0.1985,0.225,0.135475040258
34120000,100.643859922,142.70158075,79.6149995076,0.7865,0.2455,0.5925,0.0245,0.236,0.2605,0.0933180851659,0.024,0.236,0.26,0.0903418946897,0.024,0.236,0.26,0.0903418946897,0.024,0.236,0.26,0.0903418946897,0.024,0.236,0.26,0.0903418946897,0.024,0.236,0.26,0.0903418946897
34120000,101.25855304,133.027617527,85.3740207957,0.7485,0.2015,0.548,0.012,0.1935,0.2055,0.0642210144928,0.012,0.1935,0.2055,0.0642210144928,0.012,0.1855,0.1975,0.0659601449275,0.012,0.1855,0.1975,0.0659601449275,0.012,0.1795,0.1915,0.0717146206309,0.012,0.1795,0.1915,0.0717146206309
34120000,101.344304597,142.352610165,80.8401518131,0.7425,0.1965,0.539,0.0155,0.195,0.2105,0.0776235766046,0.0155,0.195,0.2105,0.0776235766046,0.0155,0.195,0.2105,0.0776235766046,0.0155,0.195,0.2105,0.0776235766046,0.0155,0.195,0.2105,0.0776235766046,0.0155,0.195,0.2105,0.0776235766046
34120000,101.594025357,144.100484806,80.3407956324,0.7675,0.2015,0.5815,0.0185,0.195,0.2135,0.0996563757433,0.0185,0.195,0.2135,0.0996563757433,0.0185,0.195,0.2135,0.0996563757433,0.0185,0.195,0.2135,0.0996563757433,0.0185,0.195,0.2135,0.0996563757433,0.0185,0.195,0.2135,0.0996563757433
34120000,101.839391098,134.491825345,85.5131739748,0.7545,0.1995,0.557,0.0245,0.1895,0.214,0.131589068826,0.0245,0.1895,0.214,0.131589068826,0.0245,0.1895,0.214,0.131589068826,0.0205,0.1895,0.21,0.111589068826,0.0165,0.1895,0.206,0.0915890688259,0.0165,0.1895,0.206,0.0915890688259
34120000,102.004939634,143.801644917,81.1065869917,0.777,0.2325,0.5355,0.0105,0.2305,0.241,0.0466754447783,0.0105,0.2305,0.241,0.0466754447783,0.0105,0.2305,0.241,0.0466754447783,0.0105,0.2305,0.241,0.0466754447783,0.0105,0.2305,0.241,0.0466754447783,0.0105,0.2305,0.241,0.0466754447783
34120000,102.902057015,145.715968046,81.4951014996,0.7775,0.2,0.5305,0.0325,0.1985,0.231,0.177886972867,0.0325,0.1985,0.231,0.177886972867,0.0325,0.1985,0.231,0.177886972867,0.0325,0.1985,0.231,0.177886972867,0.0325,0.1985,0.231,0.177886972867,0.0225,0.1985,0.221,0.121068791049
34120000,103.584666476,139.853656748,85.45017134,0.788,0.2075,0.58,0.02,0.1885,0.2085,0.10772993311,0.02,0.1885,0.2085,0.10772993311,0.02,0.1885,0.2085,0.10772993311,0.02,0.1885,0.2085,0.10772993311,0.02,0.1885,0.2085,0.10772993311,0.02,0.1885,0.2085,0.10772993311
34120000,103.993490725,146.482327431,82.7490723721,0.76,0.2385,0.5585,0.031,0.2365,0.2675,0.143188160987,0.031,0.2365,0.2675,0.143188160987,0.031,0.2365,0.2675,0.143188160987,0.031,0.2365,0.2675,0.143188160987,0.031,0.2365,0.2675,0.143188160987,0.031,0.2365,0.2675,0.143188160987
34120000,104.205046749,146.768413459,82.9233633939,0.7555,0.2225,0.5585,0.013,0.212,0.225,0.0663748914713,0.013,0.212,0.225,0.0663748914713,0.013,0.212,0.225,0.0663748914713,0.013,0.212,0.225,0.0663748914713,0.013,0.212,0.225,0.0663748914713,0.013,0.212,0.225,0.0663748914713
34120000,104.775669963,139.755070878,87.2859695055,0.769,0.203,0.5655,0.02,0.1855,0.2055,0.106083916084,0.02,0.1855,0.2055,0.106083916084,0.02,0.1855,0.2055,0.106083916084,0.02,0.1855,0.2055,0.106083916084,0.02,0.1855,0.2055,0.106083916084,0.02,0.1855,0.2055,0.106083916084
34120000,105.72110219,140.408931861,88.377187355,0.7435,0.204,0.548,0.0145,0.2025,0.217,0.070902014652,0.0145,0.1995,0.214,0.0722656510157,0.0145,0.1995,0.214,0.0722656510157,0.0145,0.1995,0.214,0.0722656510157,0.0145,0.1995,0.214,0.0722656510157,0.0145,0.1995,0.214,0.0722656510157
34120000,105.819430657,141.225415317,88.1164383279,0.7485,0.199,0.55,0.0115,0.196,0.2075,0.0580973193473,0.0115,0.196,0.2075,0.0580973193473,0.0115,0.196,0.2075,0.0580973193473,0.0115,0.196,0.2075,0.0580973193473,0.0115,0.196,0.2075,0.0580973193473,0.011,0.196,0.207,0.0556934731935
34120000,106.538655078,139.624746514,89.9956093599,0.738,0.192,0.5415,0.014,0.1795,0.1935,0.0790407509158,0.014,0.1795,0.1935,0.0790407509158,0.014,0.1795,0.1935,0.0790407509158,0.014,0.1795,0.1935,0.0790407509158,0.014,0.1795,0.1935,0.0790407509158,0.014,0.1795,0.1935,0.0790407509158
34120000,106.712123746,140.388127663,89.874121788,0.748,0.205,0.547,0.016,0.2035,0.2195,0.0778135451505,0.016,0.2035,0.2195,0.0778135451505,0.016,0.2035,0.2195,0.0778135451505,0.016,0.2035,0.2195,0.0778135451505,0.016,0.2035,0.2195,0.0778135451505,0.016,0.2035,0.2195,0.0778135451505
34120000,108.577308883,143.168446036,91.2817403066,0.7405,0.2015,0.5355,0.037,0.1865,0.2235,0.207161497922,0.037,0.1865,0.2235,0.207161497922,0.037,0.1865,0.2235,0.207161497922,0.037,0.1865,0.2235,0.207161497922,0.037,0.1865,0.2235,0.207161497922,0.037,0.1865,0.2235,0.207161497922
34120000,109.891772044,145.685478953,91.9949185891,0.734,0.1965,0.5305,0.013,0.195,0.208,0.0660416666667,0.013,0.195,0.208,0.0660416666667,0.013,0.195,0.208,0.0660416666667,0.013,0.195,0.208,0.0660416666667,0.013,0.195,0.208,0.0660416666667,0.013,0.195,0.208,0.0660416666667
34120000,110.062296608,145.299713447,92.4435881887,0.746,0.1985,0.545,0.0205,0.1925,0.213,0.106588628763,0.0205,0.1925,0.213,0.106588628763,0.0205,0.1925,0.213,0.106588628763,0.02,0.1925,0.2125,0.104088628763,0.02,0.1925,0.2125,0.104088628763,0.02,0.1925,0.2125,0.104088628763
34160000,91.274246395,133.481747012,70.1704960863,0.78,0.262,0.554,0.014,0.256,0.27,0.0569989395546,0.014,0.256,0.27,0.0569989395546,0.014,0.256,0.27,0.0569989395546,0.014,0.256,0.27,0.0569989395546,0.014,0.256,0.27,0.0569989395546,0.014,0.256,0.27,0.0569989395546
34160000,92.4331290125,125.735203171,75.7820919332,0.7375,0.2005,0.5385,0.012,0.2005,0.2125,0.0597115384615,0.012,0.2005,0.2125,0.0597115384615,0.012,0.2005,0.2125,0.0597115384615,0.012,0.2005,0.2125,0.0597115384615,0.012,0.2005,0.2125,0.0597115384615,0.012,0.2005,0.2125,0.0597115384615
34160000,93.2228929238,119.566003017,80.0513378773,0.731,0.204,0.53,0.027,0.1985,0.2255,0.132779751951,0.027,0.1985,0.2255,0.132779751951,0.027,0.1985,0.2255,0.132779751951,0.027,0.1985,0.2255,0.132779751951,0.027,0.1985,0.2255,0.132779751951,0.027,0.1985,0.2255,0.132779751951
34160000,93.4279092519,123.367127543,78.4583001063,0.679,0.2085,0.4905,0.0205,0.202,0.2225,0.104955735639,0.0205,0.202,0.2225,0.104955735639,0.0205,0.202,0.2225,0.104955735639,0.0205,0.202,0.2225,0.104955735639,0.0205,0.202,0.2225,0.104955735639,0.0205,0.202,0.2225,0.104955735639
34160000,93.5263949198,133.867344983,73.3559198881,0.7475,0.202,0.5495,0.013,0.1885,0.2015,0.0676137513802,0.013,0.1885,0.2015,0.0676137513802,0.013,0.1885,0.2015,0.0676137513802,0.013,0.1885,0.2015,0.0676137513802,0.013,0.1885,0.2015,0.0676137513802,0.013,0.1885,0.2015,0.0676137513802
34160000,93.9759185692,137.40331197,72.2622218687,0.757,0.2025,0.5535,0.0175,0.1965,0.214,0.0886172161172,0.0175,0.1965,0.214,0.0886172161172,0.0175,0.1965,0.214,0.0886172161172,0.0175,0.1965,0.214,0.0886172161172,0.0175,0.1965,0.214,0.0886172161172,0.0175,0.1965,0.214,0.0886172161172
34160000,95.0818787247,138.206271592,73.5196822909,0.727,0.1945,0.5375,0.01,0.1895,0.1995,0.0529211956522,0.01,0.1895,0.1995,0.0529211956522,0.01,0.1895,0.1995,0.0529211956522,0.01,0.1895,0.1995,0.0529211956522,0.01,0.1895,0.1995,0.0529211956522,0.01,0.1895,0.1995,0.0529211956522
34160000,95.7000807038,137.176188157,74.9620269772,0.724,0.248,0.5285,0.03,0.243,0.273,0.1503125,0.03,0.243,0.273,0.1503125,0.03,0.243,0.273,0.1503125,0.03,0.243,0.273,0.1503125,0.03,0.243,0.273,0.1503125,0.03,0.243,0.273,0.1503125
34160000,99.1809674377,135.342006335,81.1004479888,0.7305,0.186,0.33,0.03,0.167,0.197,0.186688466473,0.03,0.167,0.197,0.186688466473,0.03,0.167,0.197,0.186688466473,0.03,0.167,0.197,0.186688466473,0.03,0.167,0.197,0.186688466473,0.03,0.167,0.197,0.186688466473
34160000,100.509155653,145.891799125,77.8178339167,0.697,0.253,0.4975,0.0185,0.245,0.2635,0.0928616220736,0.0185,0.245,0.2635,0.0928616220736,0.0185,0.245,0.2635,0.0928616220736,0.0185,0.245,0.2635,0.0928616220736,0.0185,0.245,0.2635,0.0928616220736,0.0185,0.245,0.2635,0.0928616220736
34160000,105.15320662,150.141558599,82.6590306305,0.6735,0.1905,0.4825,0.0185,0.174,0.1925,0.107945268257,0.0185,0.174,0.1925,0.107945268257,0.0185,0.174,0.1925,0.107945268257,0.0185,0.174,0.1925,0.107945268257,0.0185,0.174,0.1925,0.107945268257,0.0185,0.174,0.1925,0.107945268257
34160000,105.890565933,146.933030141,85.3693338292,0.7805,0.318,0.5255,0.019,0.3055,0.3245,0.0717262835403,0.019,0.3055,0.3245,0.0717262835403,0.019,0.3055,0.3245,0.0717262835403,0.019,0.3055,0.3245,0.0717262835403,0.019,0.3055,0.3245,0.0717262835403,0.019,0.3055,0.3245,0.0717262835403
34160000,106.218478466,150.515511765,84.0699618166,0.6875,0.2265,0.485,0.0215,0.2155,0.237,0.0870855895312,0.0215,0.2155,0.237,0.0870855895312,0.0215,0.2155,0.237,0.0870855895312,0.0215,0.2155,0.237,0.0870855895312,0.0215,0.2155,0.237,0.0870855895312,0.0215,0.2155,0.237,0.0870855895312
34200000,89.1662652832,119.042540606,74.228127622,0.654,0.2075,0.455,0.015,0.2065,0.2215,0.0728276353276,0.015,0.2065,0.2215,0.0728276353276,0.015,0.2065,0.2215,0.0728276353276,0.015,0.2065,0.2215,0.0728276353276,0.015,0.2065,0.2215,0.0728276353276,0.015,0.2065,0.2215,0.0728276353276
34200000,90.3361170521,121.130975147,74.9386880047,0.646,0.211,0.456,0.0115,0.2105,0.222,0.053866004685,0.0115,0.2105,0.222,0.053866004685,0.0115,0.2105,0.222,0.053866004685,0.0115,0.2105,0.222,0.053866004685,0.0115,0.2105,0.222,0.053866004685,0.0115,0.2105,0.222,0.053866004685
34200000,91.8987952653,134.408747481,70.6438191574,0.8,0.238,0.582,0.012,0.2155,0.2275,0.0539425868847,0.012,0.2155,0.2275,0.0539425868847,0.012,0.2155,0.2275,0.0539425868847,0.012,0.2155,0.2275,0.0539425868847,0.012,0.2155,0.2275,0.0539425868847,0.012,0.2155,0.2275,0.0539425868847
34200000,92.6727015674,135.588589465,71.2147576186,0.795,0.216,0.58,0.02,0.1915,0.2115,0.105873745819,0.02,0.1915,0.2115,0.105873745819,0.02,0.1915,0.2115,0.105873745819,0.02,0.1915,0.2115,0.105873745819,0.02,0.1915,0.2115,0.105873745819,0.02,0.1915,0.2115,0.105873745819
34200000,93.2274685346,137.887329202,70.8975382011,0.8385,0.2155,0.6185,0.017,0.2015,0.2185,0.0845347144804,0.017,0.2015,0.2185,0.0845347144804,0.017,0.2015,0.2185,0.0845347144804,0.017,0.2015,0.2185,0.0845347144804,0.017,0.2015,0.2185,0.0845347144804,0.017,0.2015,0.2185,0.0845347144804
34200000,95.5096357636,141.565864221,72.481521535,0.753,0.201,0.486,0.014,0.1845,0.1985,0.0803013833992,0.014,0.1845,0.1985,0.0803013833992,0.014,0.1845,0.1985,0.0803013833992,0.014,0.1845,0.1985,0.0803013833992,0.014,0.1845,0.1985,0.0803013833992,0.014,0.1845,0.1985,0.0803013833992
34200000,95.5257060873,140.703427126,72.936845568,0.82,0.221,0.597,0.0145,0.2135,0.228,0.0681415343915,0.0145,0.2135,0.228,0.0681415343915,0.0145,0.2135,0.228,0.0681415343915,0.0145,0.2135,0.228,0.0681415343915,0.0145,0.2135,0.228,0.0681415343915,0.0145,0.2135,0.228,0.0681415343915
34200000,95.9188396193,143.161235088,72.2976418848,0.84,0.213,0.6245,0.018,0.1985,0.2165,0.0973148148148,0.018,0.1985,0.2165,0.0973148148148,0.018,0.1985,0.2165,0.0973148148148,0.018,0.1985,0.2165,0.0973148148148,0.018,0.1985,0.2165,0.0973148148148,0.018,0.1985,0.2165,0.0973148148148
34200000,96.4724824776,140.62917905,74.3941341913,0.796,0.219,0.584,0.019,0.215,0.234,0.0878262362637,0.019,0.215,0.234,0.0878262362637,0.019,0.215,0.234,0.0878262362637,0.019,0.215,0.234,0.0878262362637,0.019,0.215,0.234,0.0878262362637,0.019,0.215,0.234,0.0878262362637
34200000,96.74087862,142.642884189,73.7898758357,0.8045,0.2165,0.5825,0.011,0.209,0.22,0.0522685185185,0.011,0.209,0.22,0.0522685185185,0.011,0.209,0.22,0.0522685185185,0.011,0.209,0.22,0.0522685185185,0.011,0.209,0.22,0.0522685185185,0.011,0.209,0.22,0.0522685185185
34200000,96.8666325887,143.224268493,73.6878146365,0.8215,0.216,0.6045,0.0105,0.2025,0.213,0.0518634259259,0.0105,0.2025,0.213,0.0518634259259,0.0105,0.2025,0.213,0.0518634259259,0.0105,0.2025,0.213,0.0518634259259,0.0105,0.2025,0.213,0.0518634259259,0.0105,0.2025,0.213,0.0518634259259
34200000,97.4922549099,143.762593691,74.3570855196,0.81,0.2305,0.597,0.0095,0.2295,0.239,0.0409978458759,0.0095,0.2295,0.239,0.0409978458759,0.0095,0.2295,0.239,0.0409978458759,0.0095,0.2295,0.239,0.0409978458759,0.0095,0.2295,0.239,0.0409978458759,0.0095,0.2295,0.239,0.0409978458759
34200000,97.5537965489,143.873618181,74.3938857329,0.7975,0.224,0.576,0.018,0.2195,0.2375,0.0818634259259,0.018,0.2195,0.2375,0.0818634259259,0.018,0.2195,0.2375,0.0818634259259,0.018,0.2195,0.2375,0.0818634259259,0.016,0.2195,0.2355,0.0729348544974,0.016,0.2195,0.2355,0.0729348544974
34200000,97.7842087154,140.946720328,76.2029529092,0.7915,0.239,0.574,0.0165,0.2295,0.246,0.0738604994375,0.0165,0.2295,0.246,0.0738604994375,0.0165,0.2295,0.246,0.0738604994375,0.0165,0.2295,0.246,0.0738604994375,0.0165,0.2295,0.246,0.0738604994375,0.0165,0.2295,0.246,0.0738604994375
34200000,97.8953147809,144.934663106,74.3756406182,0.804,0.221,0.5715,0.0145,0.2095,0.224,0.0694642857143,0.0145,0.2095,0.224,0.0694642857143,0.0145,0.2095,0.224,0.0694642857143,0.0145,0.2095,0.224,0.0694642857143,0.0145,0.2095,0.224,0.0694642857143,0.0145,0.2095,0.224,0.0694642857143
34200000,98.0419421589,141.655495179,76.2351656488,0.7815,0.1875,0.565,0.0155,0.1775,0.193,0.0930436939268,0.0155,0.1775,0.193,0.0930436939268,0.0155,0.1775,0.193,0.0930436939268,0.0155,0.1775,0.193,0.0930436939268,0.0155,0.1775,0.193,0.0930436939268,0.0155,0.1775,0.193,0.0930436939268
34200000,98.4178941261,145.41985088,74.916915749,0.7765,0.2005,0.5685,0.0135,0.1945,0.208,0.0687731481481,0.0135,0.1945,0.208,0.0687731481481,0.0135,0.1945,0.208,0.0687731481481,0.0135,0.1945,0.208,0.0687731481481,0.0135,0.1945,0.208,0.0687731481481,0.0135,0.1945,0.208,0.0687731481481
34200000,98.5215659992,145.927181461,74.8187582681,0.8145,0.2205,0.5925,0.024,0.2125,0.2365,0.111603548424,0.024,0.2125,0.2365,0.111603548424,0.024,0.2125,0.2365,0.111603548424,0.024,0.2125,0.2365,0.111603548424,0.024,0.2125,0.2365,0.111603548424,0.024,0.2125,0.2365,0.111603548424
34200000,98.5381784135,144.592855736,75.5108397525,0.7795,0.2045,0.5565,0.02,0.2015,0.2215,0.0997275641026,0.02,0.2015,0.2215,0.0997275641026,0.02,0.2015,0.2215,0.0997275641026,0.02,0.2015,0.2215,0.0997275641026,0.02,0.2015,0.2215,0.0997275641026,0.02,0.2015,0.2215,0.0997275641026
34200000,98.9866004388,144.991370485,75.9842154159,0.8075,0.2215,0.589,0.0125,0.216,0.2285,0.0578703703704,0.0125,0.216,0.2285,0.0578703703704,0.0125,0.216,0.2285,0.0578703703704,0.0125,0.216,0.2285,0.0578703703704,0.0125,0.216,0.2285,0.0578703703704,0.0125,0.216,0.2285,0.0578703703704
34200000,99.8870949422,146.653925365,76.503679731,0.81,0.219,0.5925,0.0105,0.2085,0.219,0.0508175620676,0.0105,0.2085,0.219,0.0508175620676,0.0105,0.2085,0.219,0.0508175620676,0.0105,0.2085,0.219,0.0508175620676,0.0105,0.2085,0.219,0.0508175620676,0.0105,0.2085,0.219,0.0508175620676
34200000,100.427144231,147.53292364,76.8742545264,0.798,0.2165,0.5865,0.032,0.21,0.242,0.150806369556,0.032,0.21,0.242,0.150806369556,0.032,0.21,0.242,0.150806369556,0.032,0.21,0.242,0.150806369556,0.032,0.21,0.242,0.150806369556,0.032,0.21,0.242,0.150806369556
34200000,100.486269751,147.499208696,76.9798002781,0.7525,0.215,0.551,0.012,0.207,0.219,0.0603703703704,0.008,0.207,0.215,0.039537037037,0.008,0.207,0.215,0.039537037037,0.008,0.207,0.215,0.039537037037,0.008,0.207,0.215,0.039537037037,0.008,0.207,0.215,0.039537037037
34200000,100.895723688,146.776970438,77.9551003131,0.781,0.219,0.5655,0.021,0.197,0.218,0.100246108059,0.021,0.197,0.218,0.100246108059,0.021,0.197,0.218,0.100246108059,0.021,0.197,0.218,0.100246108059,0.021,0.197,0.218,0.100246108059,0.021,0.197,0.218,0.100246108059
34200000,100.962324916,147.879319427,77.5038276608,0.798,0.216,0.586,0.042,0.2085,0.2505,0.195876068376,0.042,0.2085,0.2505,0.195876068376,0.042,0.2085,0.2505,0.195876068376,0.042,0.2085,0.2505,0.195876068376,0.042,0.2085,0.2505,0.195876068376,0.042,0.2085,0.2505,0.195876068376
34200000,101.051263928,147.673203369,77.740294207,0.8015,0.215,0.58,0.014,0.2095,0.2235,0.0670405982906,0.014,0.2095,0.2235,0.0670405982906,0.014,0.2095,0.2235,0.0670405982906,0.014,0.2095,0.2235,0.0670405982906,0.014,0.2095,0.2235,0.0670405982906,0.014,0.2095,0.2235,0.0670405982906
34200000,101.289599512,141.649262383,81.1097680764,0.687,0.198,0.4845,0.026,0.195,0.221,0.134837962963,0.026,0.195,0.221,0.134837962963,0.026,0.195,0.221,0.134837962963,0.026,0.195,0.221,0.134837962963,0.026,0.195,0.221,0.134837962963,0.026,0.195,0.221,0.134837962963
34200000,101.38550531,148.85092661,77.6527946593,0.804,0.2145,0.5845,0.0205,0.192,0.2125,0.115961538462,0.0205,0.192,0.2125,0.115961538462,0.0205,0.192,0.2125,0.115961538462,0.0205,0.192,0.2125,0.115961538462,0.0205,0.192,0.2125,0.115961538462,0.0205,0.192,0.2125,0.115961538462
34200000,101.48968866,146.577644884,78.9457105487,0.7725,0.216,0.558,0.014,0.196,0.21,0.0716746794872,0.014,0.196,0.21,0.0716746794872,0.014,0.196,0.21,0.0716746794872,0.014,0.196,0.21,0.0716746794872,0.014,0.196,0.21,0.0716746794872,0.014,0.196,0.21,0.0716746794872
34200000,101.640940809,148.469097689,78.2268623696,0.802,0.2195,0.5845,0.0115,0.2135,0.225,0.0537367724868,0.0115,0.2135,0.225,0.0537367724868,0.0115,0.2135,0.225,0.0537367724868,0.0115,0.2135,0.225,0.0537367724868,0.0115,0.2135,0.225,0.0537367724868,0.0115,0.2135,0.225,0.0537367724868
34200000,101.71778926,146.268575318,79.4423962316,0.756,0.2115,0.4825,0.0145,0.2035,0.218,0.0701785714286,0.0145,0.2035,0.218,0.0701785714286,0.0145,0.2035,0.218,0.0701785714286,0.0145,0.2035,0.218,0.0701785714286,0.0145,0.2035,0.218,0.0701785714286,0.0145,0.2035,0.218,0.0701785714286
34200000,101.881156101,147.352165165,79.1456515689,0.802,0.2245,0.577,0.008,0.218,0.226,0.0367317867318,0.008,0.218,0.226,0.0367317867318,0.008,0.218,0.226,0.0367317867318,0.008,0.218,0.226,0.0367317867318,0.008,0.218,0.226,0.0367317867318,0.008,0.218,0.226,0.0367317867318
34200000,102.148546182,146.902844328,79.7713971083,0.7665,0.209,0.559,0.011,0.2025,0.2135,0.0543795787546,0.011,0.2025,0.2135,0.0543795787546,0.011,0.2025,0.2135,0.0543795787546,0.011,0.2025,0.2135,0.0543795787546,0.011,0.2025,0.2135,0.0543795787546,0.011,0.2025,0.2135,0.0543795787546
34200000,102.205906363,148.052316045,79.2827015221,0.7705,0.2025,0.4205,0.019,0.191,0.21,0.102161438099,0.019,0.191,0.21,0.102161438099,0.019,0.191,0.21,0.102161438099,0.019,0.191,0.21,0.102161438099,0.019,0.191,0.21,0.102161438099,0.019,0.191,0.21,0.102161438099
34200000,102.539907076,148.084856264,79.7674324822,0.7765,0.206,0.5685,0.0215,0.1975,0.219,0.117692816443,0.0215,0.1975,0.219,0.117692816443,0.0215,0.1975,0.219,0.117692816443,0.0215,0.1975,0.219,0.117692816443,0.0215,0.1975,0.219,0.117692816443,0.0215,0.1975,0.219,0.117692816443
34200000,103.124136773,148.577995916,80.397207202,0.7515,0.2705,0.539,0.0185,0.264,0.2825,0.0796869193608,0.0185,0.264,0.2825,0.0796869193608,0.0185,0.264,0.2825,0.0796869193608,0.0185,0.264,0.2825,0.0796869193608,0.0185,0.264,0.2825,0.0796869193608,0.0185,0.264,0.2825,0.0796869193608
34200000,103.136237854,149.625457243,79.8916281595,0.776,0.336,0.552,0.04,0.32,0.36,0.125,0.04,0.32,0.36,0.125,0.04,0.32,0.36,0.125,0.04,0.32,0.36,0.125,0.04,0.32,0.36,0.125,0.04,0.32,0.36,0.125
34200000,103.144885645,149.484655071,79.9750009319,0.77,0.2165,0.5615,0.0205,0.1995,0.22,0.104388083736,0.0205,0.1995,0.22,0.104388083736,0.0205,0.1995,0.22,0.104388083736,0.0205,0.1995,0.22,0.104388083736,0.0205,0.1995,0.22,0.104388083736,0.0205,0.1995,0.22,0.104388083736
34200000,103.222164537,149.365097852,80.1506978795,0.783,0.212,0.568,0.011,0.207,0.218,0.0534855769231,0.011,0.207,0.218,0.0534855769231,0.011,0.207,0.218,0.0534855769231,0.011,0.207,0.218,0.0534855769231,0.011,0.207,0.218,0.0534855769231,0.011,0.207,0.218,0.0534855769231
34200000,103.249206283,149.519909296,80.113854776,0.7845,0.2165,0.578,0.014,0.211,0.225,0.0691614906832,0.014,0.211,0.225,0.0691614906832,0.014,0.211,0.225,0.0691614906832,0.014,0.211,0.225,0.0691614906832,0.014,0.211,0.225,0.0691614906832,0.014,0.211,0.225,0.0691614906832
34200000,103.316744868,149.496201841,80.2270163811,0.7955,0.2215,0.581,0.014,0.2165,0.2305,0.064892526455,0.014,0.2165,0.2305,0.064892526455,0.014,0.2165,0.2305,0.064892526455,0.014,0.2165,0.2305,0.064892526455,0.014,0.2165,0.2305,0.064892526455,0.014,0.2165,0.2305,0.064892526455
34200000,103.343368357,149.413249427,80.3084278214,0.777,0.211,0.5585,0.0235,0.2105,0.234,0.111645299145,0.0235,0.2105,0.234,0.111645299145,0.0235,0.2105,0.234,0.111645299145,0.0235,0.2105,0.234,0.111645299145,0.0235,0.2105,0.234,0.111645299145,0.0235,0.2105,0.234,0.111645299145
34200000,103.415375679,149.526041558,80.3600427394,0.783,0.2165,0.566,0.014,0.2065,0.2205,0.070089031339,0.014,0.2065,0.2205,0.070089031339,0.014,0.2065,0.2205,0.070089031339,0.014,0.2065,0.2205,0.070089031339,0.014,0.2065,0.2205,0.070089031339,0.014,0.2065,0.2205,0.070089031339
34200000,103.553790041,148.509105266,81.0761324291,0.7925,0.22,0.5695,0.0105,0.2165,0.227,0.0492336726173,0.0105,0.2165,0.227,0.0492336726173,0.0105,0.2165,0.227,0.0492336726173,0.0105,0.2165,0.227,0.0492336726173,0.0105,0.2165,0.227,0.0492336726173,0.0105,0.2165,0.227,0.0492336726173
34200000,103.894204068,145.339860102,83.1713760514,0.7365,0.2175,0.4785,0.0175,0.2115,0.229,0.0830932030932,0.0175,0.2115,0.229,0.0830932030932,0.0175,0.2115,0.229,0.0830932030932,0.0175,0.2115,0.229,0.0830932030932,0.0175,0.2115,0.229,0.0830932030932,0.0175,0.2115,0.229,0.0830932030932
34200000,104.453015869,149.028078351,82.1654846289,0.752,0.2095,0.536,0.0145,0.1985,0.213,0.0753478858098,0.0145,0.1985,0.213,0.0753478858098,0.0145,0.1985,0.213,0.0753478858098,0.0145,0.1985,0.213,0.0753478858098,0.0145,0.1985,0.213,0.0753478858098,0.0145,0.1985,0.213,0.0753478858098
34200000,104.958414503,149.939958856,82.4676423271,0.7065,0.202,0.5055,0.011,0.1955,0.2065,0.0580488306983,0.011,0.1955,0.2065,0.0580488306983,0.011,0.1955,0.2065,0.0580488306983,0.011,0.1955,0.2065,0.0580488306983,0.011,0.1955,0.2065,0.0580488306983,0.011,0.1915,0.2025,0.0588821640316
34200000,104.963869381,149.472855899,82.7093761215,0.781,0.2075,0.569,0.0325,0.2075,0.24,0.156538461538,0.0325,0.2075,0.24,0.156538461538,0.0325,0.2075,0.24,0.156538461538,0.0325,0.2075,0.24,0.156538461538,0.0325,0.2075,0.24,0.156538461538,0.0325,0.2075,0.24,0.156538461538
34200000,105.182857156,149.55733961,82.9956159287,0.7615,0.22,0.547,0.013,0.199,0.212,0.0643583218311,0.013,0.199,0.212,0.0643583218311,0.013,0.199,0.212,0.0643583218311,0.013,0.199,0.212,0.0643583218311,0.013,0.199,0.212,0.0643583218311,0.013,0.199,0.212,0.0643583218311
34200000,105.192029873,149.252728658,83.1616804806,0.7835,0.214,0.574,0.0165,0.209,0.2255,0.078925729443,0.0165,0.209,0.2255,0.078925729443,0.0165,0.209,0.2255,0.078925729443,0.0165,0.209,0.2255,0.078925729443,0.0165,0.209,0.2255,0.078925729443,0.0165,0.209,0.2255,0.078925729443
34200000,105.54912856,149.361539643,83.6429230179,0.7695,0.22,0.538,0.022,0.208,0.23,0.105467138226,0.022,0.208,0.23,0.105467138226,0.022,0.208,0.23,0.105467138226,0.022,0.208,0.23,0.105467138226,0.022,0.208,0.23,0.105467138226,0.022,0.208,0.23,0.105467138226
34200000,105.752744717,149.413687368,83.9222733908,0.759,0.2105,0.5495,0.0195,0.1945,0.214,0.098003375449,0.0195,0.1945,0.214,0.098003375449,0.0195,0.1945,0.214,0.098003375449,0.0195,0.1945,0.214,0.098003375449,0.017,0.1945,0.2115,0.0859841446798,0.017,0.1945,0.2115,0.0859841446798
34200000,106.472766229,146.464239419,86.4770296341,0.6945,0.2025,0.4465,0.017,0.202,0.219,0.084377394636,0.017,0.202,0.219,0.084377394636,0.017,0.202,0.219,0.084377394636,0.017,0.202,0.219,0.084377394636,0.017,0.202,0.219,0.084377394636,0.017,0.202,0.219,0.084377394636
34240000,98.2581779379,143.339622169,75.7174558221,0.663,0.21,0.51,0.0245,0.203,0.2275,0.118521537842,0.0245,0.203,0.2275,0.118521537842,0.0245,0.203,0.2275,0.118521537842,0.0245,0.203,0.2275,0.118521537842,0.0205,0.203,0.2235,0.100003019324,0.0205,0.203,0.2235,0.100003019324
34240000,98.945903001,143.83122616,76.5032414213,0.7145,0.1825,0.3545,0.017,0.1745,0.1915,0.101210474308,0.017,0.1745,0.1915,0.101210474308,0.017,0.1745,0.1915,0.101210474308,0.009,0.1745,0.1835,0.0512104743083,0.009,0.1745,0.1835,0.0512104743083,0.009,0.1745,0.1835,0.0512104743083
34240000,99.2432442491,146.286346865,75.7216929411,0.7395,0.206,0.5305,0.016,0.2055,0.2215,0.0781730769231,0.016,0.205,0.221,0.0782772435897,0.016,0.205,0.221,0.0782772435897,0.016,0.205,0.221,0.0782772435897,0.016,0.205,0.221,0.0782772435897,0.016,0.205,0.221,0.0782772435897
34240000,102.120109122,148.405662997,78.9773321846,0.7145,0.2075,0.514,0.02,0.2065,0.2265,0.0967316595442,0.02,0.2065,0.2265,0.0967316595442,0.02,0.2065,0.2265,0.0967316595442,0.02,0.2065,0.2265,0.0967316595442,0.02,0.2065,0.2265,0.0967316595442,0.019,0.2065,0.2255,0.0915233262108
34240000,103.122913046,149.240580129,80.0640795046,0.689,0.2165,0.481,0.008,0.1965,0.2045,0.0443596284668,0.008,0.1965,0.2045,0.0443596284668,0.008,0.1965,0.2045,0.0443596284668,0.008,0.1965,0.2045,0.0443596284668,0.008,0.1965,0.2045,0.0443596284668,0.008,0.1965,0.2045,0.0443596284668
34240000,103.575991079,149.517461402,80.6052559175,0.6815,0.2015,0.4755,0.0095,0.1855,0.195,0.0508812021312,0.0095,0.1855,0.195,0.0508812021312,0.0095,0.1855,0.195,0.0508812021312,0.0095,0.1855,0.195,0.0508812021312,0.0095,0.1855,0.195,0.0508812021312,0.0095,0.1855,0.195,0.0508812021312
34240000,103.774814581,149.472632192,80.9259057761,0.6785,0.1955,0.49,0.026,0.195,0.221,0.131486742424,0.026,0.195,0.221,0.131486742424,0.026,0.195,0.221,0.131486742424,0.026,0.195,0.221,0.131486742424,0.026,0.195,0.221,0.131486742424,0.026,0.195,0.221,0.131486742424
34240000,103.929792838,149.715277499,81.0370505066,0.7,0.195,0.5025,0.008,0.1895,0.1975,0.042288372859,0.008,0.1895,0.1975,0.042288372859,0.008,0.1895,0.1975,0.042288372859,0.008,0.1895,0.1975,0.042288372859,0.008,0.1895,0.1975,0.042288372859,0.008,0.1895,0.1975,0.042288372859
34240000,104.607428832,149.155318947,82.3334837749,0.7115,0.2105,0.4585,0.0245,0.204,0.2285,0.130839490969,0.0245,0.204,0.2285,0.130839490969,0.0245,0.204,0.2285,0.130839490969,0.0245,0.204,0.2285,0.130839490969,0.0245,0.204,0.2285,0.130839490969,0.0245,0.204,0.2285,0.130839490969
34240000,106.445633878,150.13285859,84.6020215219,0.672,0.195,0.478,0.014,0.1895,0.2035,0.072267054604,0.014,0.1895,0.2035,0.072267054604,0.014,0.1895,0.2035,0.072267054604,0.014,0.1895,0.2035,0.072267054604,0.014,0.1895,0.2035,0.072267054604,0.014,0.1895,0.2035,0.072267054604
34240000,106.514308118,149.780043012,84.8814406708,0.6455,0.242,0.4725,0.017,0.238,0.255,0.10093512444,0.017,0.238,0.255,0.10093512444,0.017,0.238,0.255,0.10093512444,0.017,0.238,0.255,0.10093512444,0.017,0.238,0.255,0.10093512444,0.017,0.238,0.255,0.10093512444
34240000,106.52800999,149.432147254,85.0759413581,0.6855,0.198,0.4785,0.0145,0.181,0.1955,0.08125,0.0145,0.181,0.1955,0.08125,0.0145,0.181,0.1955,0.08125,0.0145,0.181,0.1955,0.08125,0.0145,0.181,0.1955,0.08125,0.0145,0.181,0.1955,0.08125
34240000,106.972557423,149.919236312,85.4992179792,0.6535,0.198,0.4605,0.0175,0.193,0.2105,0.0908020104895,0.0175,0.193,0.2105,0.0908020104895,0.0175,0.193,0.2105,0.0908020104895,0.0175,0.193,0.2105,0.0908020104895,0.0175,0.193,0.2105,0.0908020104895,0.0175,0.193,0.2105,0.0908020104895
34480000,98.4536216317,148.098430335,73.6312172803,0.835,0.176,0.632,0.022,0.176,0.198,0.128955381242,0.022,0.176,0.198,0.128955381242,0.022,0.176,0.198,0.128955381242,0.022,0.176,0.198,0.128955381242,0.022,0.176,0.198,0.128955381242,0.022,0.176,0.198,0.128955381242
34480000,99.1930049534,149.766370988,73.9063219358,0.8235,0.2035,0.6215,0.0105,0.1965,0.207,0.0541451302321,0.0105,0.1965,0.207,0.0541451302321,0.0105,0.1965,0.207,0.0541451302321,0.0105,0.1965,0.207,0.0541451302321,0.0105,0.1965,0.207,0.0541451302321,0.0105,0.1965,0.207,0.0541451302321
34480000,99.3303992181,147.603957379,75.1936201376,0.7515,0.1955,0.551,0.009,0.175,0.184,0.0515083874459,0.009,0.175,0.184,0.0515083874459,0.009,0.175,0.184,0.0515083874459,0.009,0.175,0.184,0.0515083874459,0.009,0.175,0.184,0.0515083874459,0.009,0.175,0.184,0.0515083874459
34480000,99.3372887794,148.298703759,74.8565812895,0.779,0.2085,0.58,0.01,0.2045,0.2145,0.0493072089947,0.01,0.2045,0.2145,0.0493072089947,0.01,0.2045,0.2145,0.0493072089947,0.01,0.2045,0.2145,0.0493072089947,0.01,0.2045,0.2145,0.0493072089947,0.01,0.2045,0.2145,0.0493072089947
34480000,100.118458246,149.563051439,75.3961616492,0.7785,0.194,0.581,0.031,0.192,0.223,0.159888168896,0.031,0.192,0.223,0.159888168896,0.031,0.192,0.223,0.159888168896,0.031,0.192,0.223,0.159888168896,0.031,0.192,0.223,0.159888168896,0.031,0.192,0.223,0.159888168896
34480000,100.131452596,149.449233564,75.4725621121,0.777,0.1975,0.581,0.014,0.1965,0.2105,0.0711548913043,0.014,0.1965,0.2105,0.0711548913043,0.014,0.1965,0.2105,0.0711548913043,0.014,0.1965,0.2105,0.0711548913043,0.014,0.1965,0.2105,0.0711548913043,0.014,0.1965,0.2105,0.0711548913043
34480000,100.266994169,150.032718247,75.3841321299,0.8055,0.1985,0.606,0.0265,0.171,0.1975,0.154521902583,0.0265,0.171,0.1975,0.154521902583,0.0265,0.171,0.1975,0.154521902583,0.0265,0.171,0.1975,0.154521902583,0.0265,0.171,0.1975,0.154521902583,0.0265,0.171,0.1975,0.154521902583
34480000,100.541380235,148.821305497,76.4014176045,0.8845,0.237,0.6655,0.011,0.233,0.244,0.0481969864855,0.011,0.229,0.24,0.0495706128591,0.011,0.229,0.24,0.0495706128591,0.011,0.229,0.24,0.0495706128591,0.011,0.229,0.24,0.0495706128591,0.011,0.229,0.24,0.0495706128591
34480000,100.620430908,149.642897867,76.1091974293,0.7545,0.1975,0.5635,0.021,0.192,0.213,0.107857142857,0.021,0.192,0.213,0.107857142857,0.021,0.192,0.213,0.107857142857,0.021,0.192,0.213,0.107857142857,0.021,0.192,0.213,0.107857142857,0.021,0.192,0.213,0.107857142857
34480000,101.099452242,149.832571163,76.7328927811,0.8715,0.219,0.6545,0.0155,0.2125,0.228,0.0718068274318,0.0155,0.2125,0.228,0.0718068274318,0.0155,0.2125,0.228,0.0718068274318,0.0155,0.2125,0.228,0.0718068274318,0.0155,0.2125,0.228,0.0718068274318,0.0155,0.2125,0.228,0.0718068274318
34480000,101.105332217,149.983522862,76.6662368942,0.783,0.1985,0.584,0.0235,0.1825,0.206,0.125293560606,0.0235,0.1825,0.206,0.125293560606,0.0235,0.1825,0.206,0.125293560606,0.0235,0.1825,0.206,0.125293560606,0.0235,0.1825,0.206,0.125293560606,0.0235,0.1825,0.206,0.125293560606
34480000,101.244180708,150.044548044,76.8439970409,0.7935,0.2,0.5935,0.01,0.199,0.209,0.0502173913043,0.01,0.199,0.209,0.0502173913043,0.01,0.199,0.209,0.0502173913043,0.01,0.199,0.209,0.0502173913043,0.01,0.199,0.209,0.0502173913043,0.01,0.199,0.209,0.0502173913043
34480000,101.339364285,150.014496246,77.0017983042,0.792,0.184,0.584,0.032,0.176,0.208,0.181818181818,0.032,0.176,0.208,0.181818181818,0.032,0.176,0.208,0.181818181818,0.032,0.176,0.208,0.181818181818,0.032,0.176,0.208,0.181818181818,0.024,0.176,0.2,0.136363636364
34480000,101.482247428,150.165483597,77.1406293439,0.7945,0.2035,0.5945,0.0165,0.201,0.2175,0.0811382850242,0.0165,0.201,0.2175,0.0811382850242,0.0165,0.201,0.2175,0.0811382850242,0.0165,0.201,0.2175,0.0811382850242,0.0165,0.201,0.2175,0.0811382850242,0.0165,0.201,0.2175,0.0811382850242
34480000,101.579957135,149.621020753,77.5594253254,0.838,0.226,0.6155,0.0125,0.221,0.2335,0.0556353767561,0.0125,0.221,0.2335,0.0556353767561,0.0125,0.221,0.2335,0.0556353767561,0.0125,0.221,0.2335,0.0556353767561,0.0125,0.221,0.2335,0.0556353767561,0.0125,0.221,0.2335,0.0556353767561
34480000,101.784098926,149.965392408,77.6934521852,0.793,0.202,0.597,0.0115,0.1935,0.205,0.0599320652174,0.0115,0.1935,0.205,0.0599320652174,0.0115,0.1935,0.205,0.0599320652174,0.0115,0.1935,0.205,0.0599320652174,0.0115,0.1935,0.205,0.0599320652174,0.0115,0.1935,0.205,0.0599320652174
34480000,102.096122041,150.117657297,78.0853544135,0.8095,0.191,0.6175,0.0135,0.185,0.1985,0.0743181818182,0.0135,0.185,0.1985,0.0743181818182,0.0135,0.185,0.1985,0.0743181818182,0.0135,0.185,0.1985,0.0743181818182,0.0135,0.185,0.1985,0.0743181818182,0.0135,0.185,0.1985,0.0743181818182
34480000,102.228713033,149.937789525,78.3741747878,0.7695,0.193,0.5775,0.036,0.186,0.222,0.19390010352,0.036,0.186,0.222,0.19390010352,0.016,0.186,0.202,0.0852044513458,0.016,0.186,0.202,0.0852044513458,0.016,0.186,0.202,0.0852044513458,0.016,0.186,0.202,0.0852044513458
34480000,102.276556279,149.876759153,78.4764548418,0.7775,0.1995,0.578,0.01,0.1935,0.2035,0.0514136904762,0.01,0.1935,0.2035,0.0514136904762,0.01,0.1935,0.2035,0.0514136904762,0.01,0.1935,0.2035,0.0514136904762,0.01,0.1935,0.2035,0.0514136904762,0.01,0.1935,0.2035,0.0514136904762
34480000,102.287864096,150.057529441,78.4030314231,0.7855,0.1985,0.5825,0.015,0.1775,0.1925,0.0831789044289,0.015,0.1775,0.1925,0.0831789044289,0.015,0.1775,0.1925,0.0831789044289,0.015,0.1775,0.1925,0.0831789044289,0.015,0.1775,0.1925,0.0831789044289,0.015,0.1775,0.1925,0.0831789044289
34480000,102.7485366,150.11598745,79.0648111747,0.835,0.2055,0.626,0.0195,0.205,0.2245,0.0948076923077,0.0195,0.205,0.2245,0.0948076923077,0.0195,0.205,0.2245,0.0948076923077,0.0195,0.205,0.2245,0.0948076923077,0.0195,0.205,0.2245,0.0948076923077,0.0195,0.205,0.2245,0.0948076923077
34480000,102.857622599,150.431075946,79.0708959253,0.793,0.1995,0.595,0.01,0.178,0.188,0.0555486542443,0.01,0.178,0.188,0.0555486542443,0.01,0.178,0.188,0.0555486542443,0.01,0.178,0.188,0.0555486542443,0.01,0.178,0.188,0.0555486542443,0.01,0.178,0.188,0.0555486542443
34480000,102.945443827,151.046628746,78.8948513672,0.854,0.1965,0.6535,0.03,0.187,0.217,0.159326834599,0.03,0.187,0.217,0.159326834599,0.03,0.187,0.217,0.159326834599,0.03,0.187,0.217,0.159326834599,0.03,0.187,0.217,0.159326834599,0.03,0.187,0.217,0.159326834599
34480000,103.124521213,150.153860291,79.6098516744,0.801,0.1945,0.596,0.027,0.1865,0.2135,0.146046195652,0.027,0.1865,0.2135,0.146046195652,0.027,0.1865,0.2135,0.146046195652,0.027,0.1865,0.2135,0.146046195652,0.027,0.1865,0.2135,0.146046195652,0.027,0.1865,0.2135,0.146046195652
34480000,103.476246032,150.158680855,80.135028621,0.786,0.1965,0.5875,0.0095,0.1905,0.2,0.0499073299889,0.0095,0.1905,0.2,0.0499073299889,0.0095,0.1905,0.2,0.0499073299889,0.0095,0.1905,0.2,0.0499073299889,0.0095,0.1905,0.2,0.0499073299889,0.0095,0.1905,0.2,0.0499073299889
34480000,103.578909906,148.91447547,80.9111271247,0.7695,0.1945,0.5755,0.0115,0.184,0.1955,0.0640476052081,0.0115,0.184,0.1955,0.0640476052081,0.0115,0.184,0.1955,0.0640476052081,0.0115,0.184,0.1955,0.0640476052081,0.0115,0.184,0.1955,0.0640476052081,0.0115,0.184,0.1955,0.0640476052081
34480000,103.580492106,150.255339023,80.2430686469,0.7845,0.2035,0.5815,0.0175,0.203,0.2205,0.0869230769231,0.0175,0.203,0.2205,0.0869230769231,0.0175,0.203,0.2205,0.0869230769231,0.0175,0.203,0.2205,0.0869230769231,0.0095,0.203,0.2125,0.0469230769231,0.0095,0.203,0.2125,0.0469230769231
34480000,103.606242003,149.773213666,80.5227561707,0.925,0.2395,0.6405,0.0095,0.2325,0.242,0.0409686609687,0.0095,0.2325,0.242,0.0409686609687,0.0095,0.2325,0.242,0.0409686609687,0.0095,0.2325,0.242,0.0409686609687,0.0095,0.2325,0.242,0.0409686609687,0.0095,0.2325,0.242,0.0409686609687
34480000,103.623102845,150.17725933,80.3460246026,0.7875,0.367,0.5855,0.009,0.362,0.371,0.0337579764222,0.009,0.362,0.371,0.0337579764222,0.009,0.362,0.371,0.0337579764222,0.009,0.362,0.371,0.0337579764222,0.009,0.362,0.371,0.0337579764222,0.009,0.362,0.371,0.0337579764222
34480000,105.008342824,150.348583322,82.3382225755,0.795,0.248,0.571,0.0245,0.235,0.2595,0.113466183575,0.0245,0.235,0.2595,0.113466183575,0.0245,0.235,0.2595,0.113466183575,0.0245,0.235,0.2595,0.113466183575,0.0245,0.235,0.2595,0.113466183575,0.0245,0.235,0.2595,0.113466183575
34480000,105.497263603,150.274501845,83.108644482,0.773,0.207,0.5675,0.015,0.1995,0.2145,0.0748175596545,0.015,0.1995,0.2145,0.0748175596545,0.015,0.1995,0.2145,0.0748175596545,0.015,0.1995,0.2145,0.0748175596545,0.015,0.1995,0.2145,0.0748175596545,0.015,0.1995,0.2145,0.0748175596545
34480000,105.945000925,150.479513979,83.6777443978,0.8,0.231,0.5805,0.0165,0.2285,0.245,0.076701691166,0.0165,0.2285,0.245,0.076701691166,0.0165,0.2285,0.245,0.076701691166,0.0165,0.2285,0.245,0.076701691166,0.0165,0.2285,0.245,0.076701691166,0.0165,0.2285,0.245,0.076701691166
34600000,94.9771391998,137.863981158,73.5337182206,0.7825,0.183,0.589,0.0175,0.1775,0.195,0.0986907114625,0.0175,0.1775,0.195,0.0986907114625,0.0175,0.1775,0.195,0.0986907114625,0.0175,0.1775,0.195,0.0986907114625,0.0175,0.1775,0.195,0.0986907114625,0.0175,0.1775,0.195,0.0986907114625
34600000,95.1667536113,139.226444736,73.136908049,0.778,0.182,0.599,0.027,0.174,0.201,0.157832204028,0.027,0.174,0.201,0.157832204028,0.027,0.174,0.201,0.157832204028,0.027,0.174,0.201,0.157832204028,0.027,0.174,0.201,0.157832204028,0.027,0.174,0.201,0.157832204028
34600000,95.9409952155,139.964113604,73.9294360212,0.773,0.187,0.5835,0.008,0.1845,0.1925,0.0434488518728,0.008,0.1845,0.1925,0.0434488518728,0.008,0.1845,0.1925,0.0434488518728,0.008,0.1845,0.1925,0.0434488518728,0.008,0.1845,0.1925,0.0434488518728,0.008,0.1805,0.1885,0.0445852155091
34600000,96.503737752,139.642589484,74.9343118859,0.7735,0.1885,0.579,0.028,0.1835,0.2115,0.150690876153,0.028,0.1835,0.2115,0.150690876153,0.028,0.1835,0.2115,0.150690876153,0.028,0.1835,0.2115,0.150690876153,0.028,0.1835,0.2115,0.150690876153,0.028,0.1835,0.2115,0.150690876153
34600000,96.9763991635,140.496040281,75.2165786047,0.781,0.1885,0.597,0.017,0.1835,0.2005,0.0929636034256,0.017,0.1795,0.1965,0.0947751976285,0.017,0.1795,0.1965,0.0947751976285,0.017,0.1795,0.1965,0.0947751976285,0.017,0.1795,0.1965,0.0947751976285,0.017,0.1795,0.1965,0.0947751976285
34600000,97.1686268432,141.87540088,74.8152398247,0.779,0.175,0.5965,0.0125,0.171,0.1835,0.0725699500728,0.0125,0.171,0.1835,0.0725699500728,0.0125,0.171,0.1835,0.0725699500728,0.0125,0.171,0.1835,0.0725699500728,0.0125,0.171,0.1835,0.0725699500728,0.0125,0.171,0.1835,0.0725699500728
34600000,97.3639644082,141.32573335,75.3830799375,0.7405,0.2475,0.525,0.0145,0.229,0.2435,0.0655420253532,0.0145,0.229,0.2435,0.0655420253532,0.0145,0.229,0.2435,0.0655420253532,0.0145,0.229,0.2435,0.0655420253532,0.0145,0.229,0.2435,0.0655420253532,0.0145,0.229,0.2435,0.0655420253532
34600000,97.5906929913,142.153394346,75.309342314,0.7585,0.1825,0.575,0.012,0.165,0.177,0.0786735642874,0.012,0.165,0.177,0.0786735642874,0.012,0.165,0.177,0.0786735642874,0.012,0.165,0.177,0.0786735642874,0.012,0.165,0.177,0.0786735642874,0.012,0.165,0.177,0.0786735642874
34600000,97.8598181954,142.151163692,75.7141454468,0.761,0.187,0.587,0.016,0.17,0.186,0.0927277432712,0.016,0.17,0.186,0.0927277432712,0.016,0.17,0.186,0.0927277432712,0.016,0.17,0.186,0.0927277432712,0.016,0.17,0.186,0.0927277432712,0.016,0.17,0.186,0.0927277432712
34600000,98.1145973769,141.502090347,76.4208508918,0.772,0.1915,0.5835,0.0215,0.1815,0.203,0.121439393939,0.0215,0.1815,0.203,0.121439393939,0.0215,0.1815,0.203,0.121439393939,0.0215,0.1815,0.203,0.121439393939,0.0215,0.1815,0.203,0.121439393939,0.0215,0.1815,0.203,0.121439393939
34600000,98.1467040659,142.983411309,75.7283504443,0.776,0.1885,0.5895,0.008,0.1845,0.1925,0.0434591450216,0.008,0.1845,0.1925,0.0434591450216,0.008,0.1845,0.1925,0.0434591450216,0.008,0.1845,0.1925,0.0434591450216,0.008,0.1845,0.1925,0.0434591450216,0.008,0.1845,0.1925,0.0434591450216
34600000,98.2586851806,142.969760114,75.903147714,0.7795,0.1825,0.595,0.0165,0.182,0.1985,0.0918148880105,0.0165,0.182,0.1985,0.0918148880105,0.0165,0.182,0.1985,0.0918148880105,0.0165,0.182,0.1985,0.0918148880105,0.0165,0.182,0.1985,0.0918148880105,0.0165,0.182,0.1985,0.0918148880105
34600000,98.4244652249,142.639094052,76.3171508114,0.757,0.18,0.5685,0.0105,0.176,0.1865,0.0592694217015,0.0105,0.176,0.1865,0.0592694217015,0.0105,0.176,0.1865,0.0592694217015,0.0105,0.176,0.1865,0.0592694217015,0.0105,0.176,0.1865,0.0592694217015,0.0105,0.176,0.1865,0.0592694217015
34600000,98.5963632841,142.038182422,76.8754537153,0.7195,0.179,0.5455,0.014,0.178,0.192,0.0812483582201,0.014,0.178,0.192,0.0812483582201,0.014,0.178,0.192,0.0812483582201,0.01,0.178,0.188,0.0549325687464,0.01,0.178,0.188,0.0549325687464,0.01,0.178,0.188,0.0549325687464
34600000,98.6955484882,143.304521144,76.3910621604,0.7535,0.1845,0.5715,0.0105,0.1615,0.172,0.0643625697974,0.0105,0.1615,0.172,0.0643625697974,0.0105,0.1615,0.172,0.0643625697974,0.0105,0.1615,0.172,0.0643625697974,0.0105,0.1615,0.172,0.0643625697974,0.0105,0.1615,0.172,0.0643625697974
34600000,98.7292416049,143.890364315,76.1486802501,0.7635,0.1845,0.577,0.014,0.1755,0.1895,0.0803571428571,0.014,0.1755,0.1895,0.0803571428571,0.014,0.1755,0.1895,0.0803571428571,0.014,0.1755,0.1895,0.0803571428571,0.014,0.1755,0.1895,0.0803571428571,0.014,0.1755,0.1895,0.0803571428571
34600000,98.8889241136,145.087670711,75.7895508148,0.748,0.1775,0.565,0.0195,0.1705,0.19,0.113536373047,0.0195,0.1705,0.19,0.113536373047,0.0195,0.1705,0.19,0.113536373047,0.0195,0.1705,0.19,0.113536373047,0.0195,0.1705,0.19,0.113536373047,0.0195,0.1705,0.19,0.113536373047
34600000,99.3308061146,143.817899081,77.0872596317,0.744,0.181,0.5615,0.0135,0.1725,0.186,0.0770636447839,0.0135,0.1725,0.186,0.0770636447839,0.0135,0.1725,0.186,0.0770636447839,0.0135,0.1725,0.186,0.0770636447839,0.0135,0.1725,0.186,0.0770636447839,0.0135,0.1725,0.186,0.0770636447839
34600000,99.7718538033,144.560968402,77.3772965039,0.775,0.1865,0.581,0.015,0.1845,0.1995,0.0801177536232,0.015,0.1845,0.1995,0.0801177536232,0.015,0.1845,0.1995,0.0801177536232,0.015,0.1845,0.1995,0.0801177536232,0.015,0.1845,0.1995,0.0801177536232,0.015,0.1845,0.1995,0.0801177536232
34600000,99.8254477623,146.062259118,76.7070420844,0.755,0.171,0.58,0.0085,0.1655,0.174,0.0515422077922,0.0085,0.1655,0.174,0.0515422077922,0.0085,0.1655,0.174,0.0515422077922,0.0085,0.1655,0.174,0.0515422077922,0.0085,0.1655,0.174,0.0515422077922,0.0085,0.1655,0.174,0.0515422077922
34600000,99.9151311445,145.79067681,76.9773583117,0.762,0.1865,0.5745,0.0135,0.1465,0.16,0.0895317437616,0.0135,0.1465,0.16,0.0895317437616,0.0135,0.1465,0.16,0.0895317437616,0.0135,0.1465,0.16,0.0895317437616,0.0135,0.1465,0.16,0.0895317437616,0.0135,0.1465,0.16,0.0895317437616
34600000,100.039748409,140.095396886,80.0119241708,0.686,0.1705,0.5095,0.0215,0.1635,0.185,0.136930765649,0.0215,0.1635,0.185,0.136930765649,0.0215,0.1635,0.185,0.136930765649,0.0135,0.1635,0.177,0.0842991867019,0.0135,0.1635,0.177,0.0842991867019,0.0135,0.1515,0.165,0.0941676077546
34600000,100.54508905,146.232069063,77.7015990431,0.718,0.1775,0.5375,0.019,0.1715,0.1905,0.111336580087,0.019,0.1715,0.1905,0.111336580087,0.019,0.1715,0.1905,0.111336580087,0.019,0.1715,0.1905,0.111336580087,0.019,0.1715,0.1905,0.111336580087,0.019,0.1715,0.1905,0.111336580087
34600000,100.968042901,146.052105377,78.4260116625,0.757,0.182,0.5795,0.012,0.1795,0.1915,0.0673542490119,0.012,0.1795,0.1915,0.0673542490119,0.012,0.1795,0.1915,0.0673542490119,0.012,0.1795,0.1915,0.0673542490119,0.012,0.1795,0.1915,0.0673542490119,0.012,0.1795,0.1915,0.0673542490119
34600000,100.991892968,147.344165375,77.8157567644,0.7465,0.181,0.569,0.0215,0.1765,0.198,0.122453180877,0.0215,0.1765,0.198,0.122453180877,0.0215,0.1765,0.198,0.122453180877,0.0215,0.1765,0.198,0.122453180877,0.0215,0.1765,0.198,0.122453180877,0.0215,0.1765,0.198,0.122453180877
34600000,101.075917228,146.136488353,78.545631666,0.711,0.1715,0.534,0.01,0.1555,0.1655,0.0650342712843,0.01,0.1555,0.1655,0.0650342712843,0.01,0.1555,0.1655,0.0650342712843,0.01,0.1555,0.1655,0.0650342712843,0.01,0.1555,0.1655,0.0650342712843,0.01,0.1555,0.1655,0.0650342712843
34600000,101.167018685,146.601714887,78.4496705833,0.771,0.1995,0.569,0.0255,0.179,0.2045,0.144128493789,0.025,0.179,0.204,0.141524327122,0.025,0.179,0.204,0.141524327122,0.025,0.179,0.204,0.141524327122,0.025,0.179,0.204,0.141524327122,0.025,0.179,0.204,0.141524327122
34600000,101.385785966,145.573658166,79.2918498656,0.7355,0.1835,0.558,0.0175,0.18,0.1975,0.0991504721124,0.0175,0.18,0.1975,0.0991504721124,0.0175,0.18,0.1975,0.0991504721124,0.0175,0.18,0.1975,0.0991504721124,0.0175,0.18,0.1975,0.0991504721124,0.0175,0.18,0.1975,0.0991504721124
34600000,101.80718189,147.606528155,78.9075087582,0.756,0.187,0.566,0.013,0.182,0.195,0.0711462450593,0.013,0.174,0.187,0.0752870318088,0.013,0.174,0.187,0.0752870318088,0.013,0.174,0.187,0.0752870318088,0.013,0.174,0.187,0.0752870318088,0.013,0.174,0.187,0.0752870318088
34600000,101.915281286,148.717245987,78.5142989356,0.77,0.21,0.566,0.008,0.192,0.2,0.0416666666667,0.008,0.192,0.2,0.0416666666667,0.008,0.192,0.2,0.0416666666667,0.008,0.192,0.2,0.0416666666667,0.008,0.192,0.2,0.0416666666667,0.008,0.192,0.2,0.0416666666667
34600000,102.237141259,148.314426693,79.1984985424,0.74,0.189,0.5525,0.013,0.188,0.201,0.0697463768116,0.013,0.188,0.201,0.0697463768116,0.013,0.188,0.201,0.0697463768116,0.013,0.188,0.201,0.0697463768116,0.013,0.188,0.201,0.0697463768116,0.013,0.188,0.201,0.0697463768116
34600000,102.240841815,147.147483465,79.7875209895,0.711,0.183,0.5275,0.015,0.178,0.193,0.0843041397961,0.015,0.178,0.193,0.0843041397961,0.015,0.178,0.193,0.0843041397961,0.015,0.178,0.193,0.0843041397961,0.015,0.178,0.193,0.0843041397961,0.015,0.178,0.193,0.0843041397961
34600000,102.48991871,148.70038897,79.3846835797,0.777,0.1835,0.588,0.017,0.1835,0.2005,0.092536878882,0.017,0.1835,0.2005,0.092536878882,0.017,0.1835,0.2005,0.092536878882,0.017,0.1835,0.2005,0.092536878882,0.017,0.1835,0.2005,0.092536878882,0.017,0.1835,0.2005,0.092536878882
34600000,102.641978005,147.858999774,80.0334671208,0.7175,0.1965,0.526,0.0165,0.184,0.2005,0.0895709815547,0.0165,0.184,0.2005,0.0895709815547,0.0165,0.184,0.2005,0.0895709815547,0.0165,0.184,0.2005,0.0895709815547,0.0165,0.184,0.2005,0.0895709815547,0.0165,0.184,0.2005,0.0895709815547
34600000,102.782720592,148.224955526,80.0616031247,0.746,0.187,0.5625,0.0155,0.1765,0.192,0.0864142353166,0.0155,0.1765,0.192,0.0864142353166,0.0155,0.1765,0.192,0.0864142353166,0.0155,0.1765,0.192,0.0864142353166,0.0155,0.174,0.1895,0.0870995423341,0.0155,0.174,0.1895,0.0870995423341
34600000,102.972785166,146.947273302,80.9855410975,0.705,0.1795,0.523,0.0105,0.1775,0.188,0.0587553524374,0.0095,0.1775,0.187,0.0533205698287,0.0095,0.1775,0.187,0.0533205698287,0.0095,0.1775,0.187,0.0533205698287,0.0095,0.1775,0.187,0.0533205698287,0.0095,0.1775,0.187,0.0533205698287
34600000,104.115858725,149.784578215,81.2814989796,0.7365,0.2045,0.535,0.0125,0.1985,0.211,0.0642197476437,0.0125,0.1975,0.21,0.0647966707206,0.0125,0.1975,0.21,0.0647966707206,0.0125,0.1975,0.21,0.0647966707206,0.0125,0.1975,0.21,0.0647966707206,0.0125,0.1975,0.21,0.0647966707206
34600000,104.595762299,149.885412085,81.9509374062,0.71,0.2055,0.5225,0.008,0.202,0.21,0.0420336326586,0.008,0.202,0.21,0.0420336326586,0.008,0.202,0.21,0.0420336326586,0.008,0.202,0.21,0.0420336326586,0.008,0.202,0.21,0.0420336326586,0.008,0.202,0.21,0.0420336326586
34600000,105.430123788,149.769212391,83.2605794865,0.7415,0.193,0.543,0.0145,0.1875,0.202,0.0783225108225,0.0145,0.1875,0.202,0.0783225108225,0.0145,0.1875,0.202,0.0783225108225,0.0145,0.1875,0.202,0.0783225108225,0.0145,0.1875,0.202,0.0783225108225,0.0145,0.1875,0.202,0.0783225108225
34600000,106.209554711,149.412853954,84.6079050887,0.8365,0.1855,0.4765,0.0355,0.1695,0.205,0.204511649678,0.0355,0.1695,0.205,0.204511649678,0.0355,0.1695,0.205,0.204511649678,0.0355,0.1695,0.205,0.204511649678,0.0355,0.1695,0.205,0.204511649678,0.0355,0.1695,0.205,0.204511649678
34640000,101.756509811,144.610319046,80.3296051927,0.8135,0.1885,0.6265,0.014,0.1775,0.1915,0.0791851943347,0.014,0.1775,0.1915,0.0791851943347,0.014,0.1775,0.1915,0.0791851943347,0.014,0.1775,0.1915,0.0791851943347,0.014,0.1775,0.1915,0.0791851943347,0.014,0.1775,0.1915,0.0791851943347
34640000,102.718927555,147.133225214,80.5117787255,0.834,0.206,0.631,0.028,0.2045,0.2325,0.138244315342,0.028,0.2045,0.2325,0.138244315342,0.028,0.2045,0.2325,0.138244315342,0.028,0.2045,0.2325,0.138244315342,0.028,0.2045,0.2325,0.138244315342,0.028,0.2045,0.2325,0.138244315342
34640000,104.335535276,148.777978651,82.1143135885,0.7845,0.1925,0.596,0.03,0.1895,0.2195,0.157744565217,0.03,0.1895,0.2195,0.157744565217,0.03,0.1895,0.2195,0.157744565217,0.03,0.1895,0.2195,0.157744565217,0.018,0.1895,0.2075,0.0952445652174,0.018,0.1895,0.2075,0.0952445652174
34640000,104.615764801,147.634379037,83.1064576832,0.773,0.1575,0.5845,0.02,0.157,0.177,0.137001811594,0.02,0.157,0.177,0.137001811594,0.02,0.157,0.177,0.137001811594,0.02,0.157,0.177,0.137001811594,0.02,0.157,0.177,0.137001811594,0.02,0.157,0.177,0.137001811594
34640000,104.89937181,144.888105357,84.9050050372,0.711,0.181,0.516,0.01,0.168,0.178,0.0590909090909,0.01,0.168,0.178,0.0590909090909,0.01,0.168,0.178,0.0590909090909,0.01,0.168,0.178,0.0590909090909,0.01,0.168,0.178,0.0590909090909,0.01,0.168,0.178,0.0590909090909
34640000,105.143143041,149.722746266,82.8533414289,0.8315,0.316,0.582,0.0105,0.3085,0.319,0.044272217792,0.0105,0.3045,0.315,0.0461661571859,0.0105,0.3045,0.315,0.0461661571859,0.0105,0.3045,0.315,0.0461661571859,0.0105,0.3045,0.315,0.0461661571859,0.0105,0.3045,0.315,0.0461661571859
34640000,105.473611342,148.796289232,83.8122723973,0.818,0.19,0.6195,0.017,0.171,0.188,0.0966161616162,0.017,0.171,0.188,0.0966161616162,0.017,0.171,0.188,0.0966161616162,0.017,0.171,0.188,0.0966161616162,0.017,0.171,0.188,0.0966161616162,0.017,0.171,0.188,0.0966161616162
34640000,105.525793725,149.942701523,83.3173398259,0.751,0.1815,0.572,0.022,0.176,0.198,0.122364149009,0.022,0.176,0.198,0.122364149009,0.022,0.176,0.198,0.122364149009,0.022,0.1755,0.1975,0.122512958533,0.022,0.1755,0.1975,0.122512958533,0.022,0.1755,0.1975,0.122512958533
34640000,105.606586408,149.616313339,83.6017229429,0.799,0.189,0.609,0.0275,0.183,0.2105,0.152751121161,0.0275,0.183,0.2105,0.152751121161,0.0275,0.183,0.2105,0.152751121161,0.0275,0.183,0.2105,0.152751121161,0.0275,0.183,0.2105,0.152751121161,0.0275,0.183,0.2105,0.152751121161
34760000,100.376561966,148.798954018,76.1653659399,0.7585,0.174,0.5775,0.01,0.162,0.172,0.0609478241057,0.01,0.162,0.172,0.0609478241057,0.01,0.162,0.172,0.0609478241057,0.01,0.162,0.172,0.0609478241057,0.01,0.162,0.172,0.0609478241057,0.01,0.162,0.172,0.0609478241057
34760000,100.399456007,148.848005747,76.1751811374,0.7405,0.182,0.5525,0.013,0.1685,0.1815,0.077867965368,0.013,0.1685,0.1815,0.077867965368,0.013,0.1685,0.1815,0.077867965368,0.013,0.1685,0.1815,0.077867965368,0.013,0.1685,0.1815,0.077867965368,0.013,0.1685,0.1815,0.077867965368
34760000,100.594763903,147.105858568,77.3392165702,0.71,0.1755,0.5445,0.0175,0.1635,0.181,0.106730646804,0.0175,0.1635,0.181,0.106730646804,0.0175,0.1635,0.181,0.106730646804,0.0175,0.1635,0.181,0.106730646804,0.0175,0.1635,0.181,0.106730646804,0.0175,0.1635,0.181,0.106730646804
34760000,100.949179637,149.13466386,76.8564375261,0.72,0.1945,0.5405,0.0155,0.1815,0.197,0.0805702927306,0.0155,0.1815,0.197,0.0805702927306,0.0155,0.1815,0.197,0.0805702927306,0.0155,0.1815,0.197,0.0805702927306,0.0155,0.1815,0.197,0.0805702927306,0.0155,0.1815,0.197,0.0805702927306
34760000,101.676547515,149.886081329,77.5717806082,0.7445,0.1795,0.563,0.0125,0.1755,0.188,0.0723226049313,0.0125,0.1755,0.188,0.0723226049313,0.0125,0.1755,0.188,0.0723226049313,0.0125,0.1715,0.184,0.0747035573123,0.0125,0.1715,0.184,0.0747035573123,0.0125,0.1715,0.184,0.0747035573123
34760000,101.712738537,150.07616441,77.5310255999,0.735,0.187,0.5265,0.012,0.175,0.187,0.0684431632868,0.012,0.175,0.187,0.0684431632868,0.012,0.175,0.187,0.0684431632868,0.012,0.175,0.187,0.0684431632868,0.012,0.175,0.187,0.0684431632868,0.01,0.175,0.185,0.0575735980694
34760000,102.713506766,150.080845195,79.0298375513,0.726,0.176,0.547,0.008,0.1585,0.1665,0.0515214485003,0.008,0.1585,0.1665,0.0515214485003,0.008,0.1585,0.1665,0.0515214485003,0.008,0.1585,0.1665,0.0515214485003,0.008,0.1585,0.1665,0.0515214485003,0.008,0.1585,0.1665,0.0515214485003
34760000,103.314522035,150.165462422,79.8890518419,0.7155,0.173,0.5425,0.0215,0.1705,0.192,0.125589959954,0.0215,0.1705,0.192,0.125589959954,0.0215,0.1705,0.192,0.125589959954,0.0215,0.1705,0.192,0.125589959954,0.0215,0.1705,0.192,0.125589959954,0.0215,0.1705,0.192,0.125589959954
34760000,103.878651647,150.096951058,80.7695019419,0.704,0.2255,0.507,0.008,0.219,0.227,0.0396459899749,0.008,0.219,0.227,0.0396459899749,0.008,0.219,0.227,0.0396459899749,0.008,0.219,0.227,0.0396459899749,0.008,0.219,0.227,0.0396459899749,0.008,0.219,0.227,0.0396459899749
34760000,104.597831846,148.191485944,82.8010047972,0.721,0.1715,0.5455,0.0245,0.1715,0.196,0.141612554113,0.0245,0.1715,0.196,0.141612554113,0.0245,0.1715,0.196,0.141612554113,0.0245,0.1715,0.196,0.141612554113,0.0245,0.1715,0.196,0.141612554113,0.0245,0.1715,0.196,0.141612554113
34760000,104.673638858,150.15077601,81.9350702813,0.7325,0.18,0.55,0.0085,0.17,0.1785,0.0506403318903,0.0085,0.17,0.1785,0.0506403318903,0.0085,0.17,0.1785,0.0506403318903,0.0085,0.17,0.1785,0.0506403318903,0.0085,0.17,0.1785,0.0506403318903,0.0085,0.17,0.1785,0.0506403318903
34760000,105.105905714,148.427567695,83.4450747231,0.712,0.18,0.538,0.012,0.1645,0.1765,0.0687770562771,0.012,0.1645,0.1765,0.0687770562771,0.012,0.1645,0.1765,0.0687770562771,0.012,0.1645,0.1765,0.0687770562771,0.012,0.1645,0.1765,0.0687770562771,0.012,0.1645,0.1765,0.0687770562771
34760000,105.268676427,149.433243754,83.1863927634,0.716,0.1675,0.544,0.016,0.165,0.181,0.0970238095238,0.016,0.165,0.181,0.0970238095238,0.016,0.165,0.181,0.0970238095238,0.016,0.165,0.181,0.0970238095238,0.016,0.1525,0.1685,0.105947159566,0.016,0.1525,0.1685,0.105947159566
34760000,105.419572807,145.496420175,85.3811491232,0.7055,0.195,0.509,0.0335,0.1925,0.226,0.173625975474,0.0335,0.1925,0.226,0.173625975474,0.0335,0.1925,0.226,0.173625975474,0.0335,0.1925,0.226,0.173625975474,0.0335,0.1845,0.218,0.184989611837,0.0335,0.1845,0.218,0.184989611837
34760000,105.733254254,149.908270649,83.6457460558,0.72,0.176,0.544,0.02,0.176,0.196,0.113636363636,0.02,0.176,0.196,0.113636363636,0.02,0.176,0.196,0.113636363636,0.02,0.176,0.196,0.113636363636,0.02,0.176,0.196,0.113636363636,0.02,0.176,0.196,0.113636363636
34760000,106.191894805,144.909548211,86.8330681018,0.703,0.2305,0.488,0.0155,0.227,0.2425,0.0675141682217,0.0155,0.227,0.2425,0.0675141682217,0.0155,0.227,0.2425,0.0675141682217,0.0155,0.227,0.2425,0.0675141682217,0.0135,0.227,0.2405,0.0591808348884,0.0135,0.227,0.2405,0.0591808348884
34760000,106.264401465,147.180793404,85.8062054952,0.7215,0.2155,0.5215,0.013,0.214,0.227,0.0591403440625,0.013,0.214,0.227,0.0591403440625,0.013,0.214,0.227,0.0591403440625,0.013,0.214,0.227,0.0591403440625,0.013,0.214,0.227,0.0591403440625,0.013,0.214,0.227,0.0591403440625
34760000,106.954168458,147.93182907,86.4653381523,0.717,0.196,0.5225,0.023,0.1945,0.2175,0.119356060606,0.023,0.1945,0.2175,0.119356060606,0.023,0.1945,0.2175,0.119356060606,0.023,0.1945,0.2175,0.119356060606,0.023,0.1945,0.2175,0.119356060606,0.023,0.1945,0.2175,0.119356060606
34760000,107.017055129,150.318081076,85.3665421561,0.71,0.1745,0.538,0.008,0.166,0.174,0.0485636439584,0.008,0.166,0.174,0.0485636439584,0.008,0.166,0.174,0.0485636439584,0.008,0.166,0.174,0.0485636439584,0.008,0.166,0.174,0.0485636439584,0.008,0.166,0.174,0.0485636439584
34760000,107.824135501,150.851872735,86.3102668845,0.6685,0.168,0.51,0.014,0.1495,0.1635,0.0877667914992,0.014,0.1495,0.1635,0.0877667914992,0.014,0.1495,0.1635,0.0877667914992,0.014,0.1495,0.1635,0.0877667914992,0.014,0.1495,0.1635,0.0877667914992,0.014,0.1495,0.1635,0.0877667914992
34760000,107.841808636,150.132731793,86.6963470576,0.77,0.1765,0.5885,0.0205,0.1755,0.196,0.117165443252,0.0205,0.1755,0.196,0.117165443252,0.0205,0.1755,0.196,0.117165443252,0.0205,0.1745,0.195,0.118058300395,0.0205,0.1745,0.195,0.118058300395,0.0205,0.1745,0.195,0.118058300395
34760000,108.028214166,149.965811827,87.0594153354,0.715,0.1775,0.5305,0.025,0.1725,0.1975,0.139533338039,0.025,0.1725,0.1975,0.139533338039,0.025,0.1725,0.1975,0.139533338039,0.025,0.169,0.194,0.143510610766,0.025,0.169,0.194,0.143510610766,0.025,0.169,0.194,0.143510610766
34760000,108.034547866,148.613856736,87.7448934304,0.7215,0.196,0.4055,0.02,0.1855,0.2055,0.106003787879,0.02,0.1855,0.2055,0.106003787879,0.02,0.1855,0.2055,0.106003787879,0.02,0.1855,0.2055,0.106003787879,0.02,0.1855,0.2055,0.106003787879,0.02,0.1855,0.2055,0.106003787879
34760000,108.107306306,150.402864356,86.9595272804,0.7485,0.1765,0.5675,0.014,0.1455,0.1595,0.0982471776589,0.014,0.1455,0.1595,0.0982471776589,0.014,0.1455,0.1595,0.0982471776589,0.014,0.1455,0.1595,0.0982471776589,0.014,0.1455,0.1595,0.0982471776589,0.014,0.1455,0.1595,0.0982471776589
34760000,108.195524486,150.291885553,87.1473439519,0.6935,0.1755,0.517,0.011,0.164,0.175,0.0672044101732,0.011,0.164,0.175,0.0672044101732,0.011,0.164,0.175,0.0672044101732,0.011,0.164,0.175,0.0672044101732,0.011,0.164,0.175,0.0672044101732,0.011,0.164,0.175,0.0672044101732
34760000,108.352197327,150.153906718,87.4513426319,0.7605,0.1785,0.581,0.02,0.1615,0.1815,0.122979323308,0.02,0.1615,0.1815,0.122979323308,0.02,0.1615,0.1815,0.122979323308,0.02,0.161,0.181,0.123592068406,0.02,0.161,0.181,0.123592068406,0.02,0.161,0.181,0.123592068406
34760000,108.524519783,148.678712957,88.4474231956,0.6855,0.2015,0.49,0.0085,0.1955,0.204,0.0439347165992,0.0085,0.1955,0.204,0.0439347165992,0.0085,0.1955,0.204,0.0439347165992,0.0085,0.1955,0.204,0.0439347165992,0.0085,0.1955,0.204,0.0439347165992,0.0085,0.1955,0.204,0.0439347165992
34760000,108.568223136,148.029603893,88.8375327569,0.6865,0.2075,0.508,0.016,0.205,0.221,0.0869717772693,0.016,0.205,0.221,0.0869717772693,0.016,0.205,0.221,0.0869717772693,0.016,0.205,0.221,0.0869717772693,0.016,0.205,0.221,0.0869717772693,0.016,0.205,0.221,0.0869717772693
34760000,108.650544511,148.37926658,88.7861834766,0.75,0.1965,0.5535,0.0145,0.196,0.2105,0.0742701863354,0.0145,0.196,0.2105,0.0742701863354,0.0125,0.196,0.2085,0.0653416149068,0.0125,0.196,0.2085,0.0653416149068,0.0125,0.196,0.2085,0.0653416149068,0.0125,0.196,0.2085,0.0653416149068
34760000,108.655697311,150.032530217,87.9672808574,0.7305,0.3025,0.542,0.0315,0.3025,0.334,0.111399060333,0.0315,0.3025,0.334,0.111399060333,0.0315,0.3025,0.334,0.111399060333,0.0315,0.3025,0.334,0.111399060333,0.0315,0.2985,0.33,0.112306172089,0.0315,0.2985,0.33,0.112306172089
34760000,108.738794829,149.247776416,88.4843040353,0.7285,0.1975,0.514,0.0105,0.1915,0.202,0.0563308747412,0.0105,0.1915,0.202,0.0563308747412,0.0105,0.1915,0.202,0.0563308747412,0.0105,0.1915,0.202,0.0563308747412,0.0105,0.1915,0.202,0.0563308747412,0.0105,0.1915,0.202,0.0563308747412
34760000,108.900780501,148.537049333,89.0826460845,0.6795,0.203,0.4395,0.011,0.1865,0.1975,0.0579829545455,0.011,0.1865,0.1975,0.0579829545455,0.011,0.1865,0.1975,0.0579829545455,0.011,0.1865,0.1975,0.0579829545455,0.011,0.1865,0.1975,0.0579829545455,0.011,0.1865,0.1975,0.0579829545455
34760000,109.191772562,150.489345089,88.542986298,0.6665,0.262,0.5035,0.0195,0.2585,0.278,0.101928231652,0.0195,0.2585,0.278,0.101928231652,0.018,0.2585,0.2765,0.0929996602235,0.016,0.2585,0.2745,0.0804996602235,0.016,0.2585,0.2745,0.0804996602235,0.016,0.2585,0.2745,0.0804996602235
34760000,109.386537549,150.173668863,88.9929718924,0.769,0.18,0.5835,0.0155,0.168,0.1835,0.0888157894737,0.0155,0.168,0.1835,0.0888157894737,0.0155,0.168,0.1835,0.0888157894737,0.0155,0.168,0.1835,0.0888157894737,0.0155,0.168,0.1835,0.0888157894737,0.0155,0.168,0.1835,0.0888157894737
34760000,109.652437634,150.128304565,89.4145041685,0.7245,0.1755,0.548,0.014,0.1715,0.1855,0.0810335497835,0.014,0.1715,0.1855,0.0810335497835,0.014,0.1715,0.1855,0.0810335497835,0.014,0.1715,0.1855,0.0810335497835,0.014,0.1715,0.1855,0.0810335497835,0.014,0.1715,0.1855,0.0810335497835
34760000,110.033946527,149.403640437,90.3490995721,0.691,0.2335,0.4755,0.014,0.2275,0.2415,0.0674639022529,0.014,0.2275,0.2415,0.0674639022529,0.014,0.2275,0.2415,0.0674639022529,0.014,0.2275,0.2415,0.0674639022529,0.014,0.2275,0.2415,0.0674639022529,0.014,0.2275,0.2415,0.0674639022529
34760000,110.051926857,150.689533544,89.7331235131,0.651,0.172,0.488,0.018,0.1685,0.1865,0.110104886585,0.018,0.1685,0.1865,0.110104886585,0.018,0.1685,0.1865,0.110104886585,0.018,0.1685,0.1865,0.110104886585,0.018,0.1685,0.1865,0.110104886585,0.018,0.1685,0.1865,0.110104886585
34760000,111.109248354,149.800004771,91.763870145,0.7025,0.189,0.516,0.035,0.189,0.224,0.188007246377,0.035,0.189,0.224,0.188007246377,0.035,0.189,0.224,0.188007246377,0.035,0.189,0.224,0.188007246377,0.035,0.189,0.224,0.188007246377,0.035,0.189,0.224,0.188007246377
34800000,101.365075134,135.788823392,84.1532010044,0.5885,0.2015,0.4155,0.018,0.18,0.198,0.102448593074,0.018,0.18,0.198,0.102448593074,0.018,0.18,0.198,0.102448593074,0.018,0.18,0.198,0.102448593074,0.018,0.18,0.198,0.102448593074,0.018,0.18,0.198,0.102448593074
34800000,103.002613193,146.255626966,81.376106306,0.682,0.176,0.506,0.022,0.172,0.194,0.1280944456,0.022,0.172,0.194,0.1280944456,0.022,0.172,0.194,0.1280944456,0.022,0.172,0.194,0.1280944456,0.022,0.172,0.194,0.1280944456,0.022,0.172,0.194,0.1280944456
34800000,105.2014358,149.158753211,83.2227770951,0.663,0.1825,0.4805,0.0155,0.1715,0.187,0.0989800130425,0.0155,0.1715,0.187,0.0989800130425,0.0155,0.1715,0.187,0.0989800130425,0.0155,0.1715,0.187,0.0989800130425,0.0155,0.1715,0.187,0.0989800130425,0.0155,0.1715,0.187,0.0989800130425
34800000,105.502806156,147.487802973,84.5103077474,0.697,0.1935,0.5075,0.011,0.1675,0.1785,0.0613698723359,0.011,0.1675,0.1785,0.0613698723359,0.011,0.1675,0.1785,0.0613698723359,0.011,0.1675,0.1785,0.0613698723359,0.011,0.1675,0.1785,0.0613698723359,0.011,0.1675,0.1785,0.0613698723359
34800000,106.01804568,148.342050369,84.8560433361,0.6765,0.188,0.4935,0.012,0.176,0.188,0.0680162764867,0.012,0.176,0.188,0.0680162764867,0.012,0.176,0.188,0.0680162764867,0.012,0.176,0.188,0.0680162764867,0.012,0.176,0.188,0.0680162764867,0.012,0.176,0.188,0.0680162764867
34800000,106.233668254,149.411526123,84.6447393203,0.6575,0.2605,0.4785,0.0105,0.246,0.2565,0.0482603276353,0.0105,0.246,0.2565,0.0482603276353,0.0105,0.246,0.2565,0.0482603276353,0.0105,0.246,0.2565,0.0482603276353,0.0105,0.246,0.2565,0.0482603276353,0.0105,0.246,0.2565,0.0482603276353
34800000,106.402674721,146.946776412,86.1306238753,0.617,0.1825,0.4335,0.009,0.1745,0.1835,0.0512215909091,0.009,0.1745,0.1835,0.0512215909091,0.009,0.1745,0.1835,0.0512215909091,0.009,0.1745,0.1835,0.0512215909091,0.009,0.1745,0.1835,0.0512215909091,0.009,0.1745,0.1835,0.0512215909091
34800000,106.95929907,147.832919459,86.5224888753,0.6755,0.2025,0.4145,0.0135,0.197,0.2105,0.0691206941207,0.0135,0.197,0.2105,0.0691206941207,0.0135,0.197,0.2105,0.0691206941207,0.0135,0.197,0.2105,0.0691206941207,0.0135,0.197,0.2105,0.0691206941207,0.0135,0.197,0.2105,0.0691206941207
34800000,107.106696715,149.615418093,85.8523360253,0.6685,0.222,0.3125,0.022,0.205,0.227,0.114603331451,0.022,0.205,0.227,0.114603331451,0.022,0.205,0.227,0.114603331451,0.022,0.205,0.227,0.114603331451,0.022,0.205,0.227,0.114603331451,0.022,0.205,0.227,0.114603331451
34800000,107.27092231,149.314956619,86.2489051555,0.6445,0.237,0.4595,0.027,0.232,0.259,0.111516897081,0.021,0.232,0.253,0.0927668970814,0.021,0.232,0.253,0.0927668970814,0.021,0.232,0.253,0.0927668970814,0.021,0.232,0.253,0.0927668970814,0.021,0.232,0.253,0.0927668970814
34800000,108.304615401,150.379203976,87.267321113,0.6495,0.242,0.4295,0.0215,0.2335,0.255,0.0951498682477,0.0215,0.2335,0.255,0.0951498682477,0.0215,0.2335,0.255,0.0951498682477,0.0215,0.2335,0.255,0.0951498682477,0.0215,0.2335,0.255,0.0951498682477,0.0215,0.2335,0.255,0.0951498682477
34800000,109.597667266,149.488932645,89.6520345767,0.6535,0.2275,0.3875,0.0225,0.224,0.2465,0.0939173526702,0.0225,0.222,0.2445,0.0946483468223,0.0225,0.222,0.2445,0.0946483468223,0.0225,0.222,0.2445,0.0946483468223,0.0225,0.222,0.2445,0.0946483468223,0.0225,0.222,0.2445,0.0946483468223
34840000,90.8269011789,129.060024579,71.7103394787,0.691,0.1695,0.519,0.0265,0.1645,0.191,0.160193850267,0.0145,0.1645,0.179,0.0887652788388,0.0145,0.1645,0.179,0.0887652788388,0.0145,0.1645,0.179,0.0887652788388,0.0145,0.1645,0.179,0.0887652788388,0.0145,0.1645,0.179,0.0887652788388
34840000,91.0598478115,130.459851187,71.3598461239,0.694,0.167,0.521,0.0115,0.159,0.1705,0.0732052669553,0.0115,0.159,0.1705,0.0732052669553,0.0115,0.159,0.1705,0.0732052669553,0.0115,0.159,0.1705,0.0732052669553,0.0115,0.159,0.1705,0.0732052669553,0.0115,0.159,0.1705,0.0732052669553
34840000,92.3041745016,131.144253842,72.8841348313,0.682,0.1685,0.5075,0.015,0.1575,0.1725,0.096875,0.015,0.1575,0.1725,0.096875,0.015,0.1575,0.1725,0.096875,0.015,0.1575,0.1725,0.096875,0.015,0.1575,0.1725,0.096875,0.015,0.1575,0.1725,0.096875
34840000,92.3281286426,131.702403742,72.6409910931,0.6965,0.1755,0.534,0.019,0.171,0.19,0.110161768057,0.019,0.171,0.19,0.110161768057,0.019,0.171,0.19,0.110161768057,0.019,0.171,0.19,0.110161768057,0.019,0.171,0.19,0.110161768057,0.019,0.171,0.19,0.110161768057
34840000,92.4915851613,129.935998036,73.7693787238,0.689,0.173,0.5105,0.009,0.167,0.176,0.0547092781361,0.009,0.166,0.175,0.0549933690451,0.009,0.166,0.175,0.0549933690451,0.009,0.166,0.175,0.0549933690451,0.009,0.166,0.175,0.0549933690451,0.009,0.166,0.175,0.0549933690451
34840000,92.7537622687,131.008923784,73.626181511,0.6845,0.1815,0.5075,0.0155,0.174,0.1895,0.0890151515152,0.0155,0.174,0.1895,0.0890151515152,0.0155,0.174,0.1895,0.0890151515152,0.0155,0.174,0.1895,0.0890151515152,0.0155,0.174,0.1895,0.0890151515152,0.0155,0.174,0.1895,0.0890151515152
34840000,92.8077947441,132.617332703,72.9030257647,0.663,0.17,0.502,0.0145,0.131,0.1455,0.116018907563,0.0145,0.131,0.1455,0.116018907563,0.0145,0.131,0.1455,0.116018907563,0.0145,0.131,0.1455,0.116018907563,0.0145,0.131,0.1455,0.116018907563,0.0145,0.131,0.1455,0.116018907563
34840000,93.0994536203,131.319540692,73.9894100844,0.677,0.172,0.5075,0.012,0.169,0.181,0.0718344155844,0.012,0.169,0.181,0.0718344155844,0.012,0.169,0.181,0.0718344155844,0.012,0.169,0.181,0.0718344155844,0.012,0.169,0.181,0.0718344155844,0.012,0.169,0.181,0.0718344155844
34840000,93.4457766873,131.956026354,74.1906518539,0.687,0.2705,0.4985,0.0115,0.2565,0.268,0.0517701190669,0.0115,0.2565,0.268,0.0517701190669,0.0115,0.2565,0.268,0.0517701190669,0.0115,0.2565,0.268,0.0517701190669,0.0115,0.2565,0.268,0.0517701190669,0.0115,0.2565,0.268,0.0517701190669
34840000,93.8610269469,131.488882364,75.0470992382,0.6755,0.172,0.501,0.012,0.1565,0.1685,0.0748556998557,0.012,0.1565,0.1685,0.0748556998557,0.012,0.1565,0.1685,0.0748556998557,0.012,0.1565,0.1685,0.0748556998557,0.012,0.1565,0.1685,0.0748556998557,0.012,0.1565,0.1685,0.0748556998557
34840000,94.0098895877,130.839936239,75.5948662618,0.6905,0.1725,0.5045,0.036,0.1625,0.1985,0.227589941999,0.036,0.1625,0.1985,0.227589941999,0.036,0.1625,0.1985,0.227589941999,0.036,0.1625,0.1985,0.227589941999,0.036,0.1625,0.1985,0.227589941999,0.036,0.1625,0.1985,0.227589941999
34840000,94.0789161837,130.151915217,76.0424166672,0.661,0.1825,0.47,0.01,0.1795,0.1895,0.055459486166,0.01,0.1795,0.1895,0.055459486166,0.01,0.1795,0.1895,0.055459486166,0.01,0.1795,0.1895,0.055459486166,0.01,0.1795,0.1895,0.055459486166,0.01,0.1795,0.1895,0.055459486166
34840000,94.4828609203,130.509935306,76.4693237275,0.6505,0.1965,0.473,0.014,0.195,0.209,0.0741425515274,0.014,0.195,0.209,0.0741425515274,0.014,0.195,0.209,0.0741425515274,0.014,0.195,0.209,0.0741425515274,0.014,0.195,0.209,0.0741425515274,0.014,0.195,0.209,0.0741425515274
34840000,94.5630409915,133.019188799,75.3349670879,0.674,0.177,0.4975,0.013,0.169,0.182,0.0811923583663,0.013,0.169,0.182,0.0811923583663,0.013,0.169,0.182,0.0811923583663,0.013,0.169,0.182,0.0811923583663,0.013,0.169,0.182,0.0811923583663,0.013,0.169,0.182,0.0811923583663
34840000,94.9951664272,133.503998311,75.7407504852,0.676,0.174,0.4985,0.0255,0.1535,0.179,0.167789502165,0.0255,0.1535,0.179,0.167789502165,0.0255,0.1535,0.179,0.167789502165,0.0255,0.1535,0.179,0.167789502165,0.0255,0.1535,0.179,0.167789502165,0.0255,0.1535,0.179,0.167789502165
34840000,95.0523956176,136.438843863,74.3591714949,0.685,0.171,0.52,0.025,0.165,0.19,0.149526277816,0.025,0.165,0.19,0.149526277816,0.025,0.165,0.19,0.149526277816,0.025,0.165,0.19,0.149526277816,0.025,0.165,0.19,0.149526277816,0.025,0.165,0.19,0.149526277816
34840000,95.5613004059,137.028389586,74.8277558161,0.683,0.171,0.5045,0.0295,0.1695,0.199,0.173214285714,0.0295,0.1695,0.199,0.173214285714,0.0295,0.1695,0.199,0.173214285714,0.0295,0.1695,0.199,0.173214285714,0.0295,0.1695,0.199,0.173214285714,0.0295,0.1695,0.199,0.173214285714
34840000,95.7616656971,139.880937147,73.7020299721,0.6895,0.173,0.515,0.03,0.1635,0.1935,0.184672619048,0.03,0.1635,0.1935,0.184672619048,0.03,0.1635,0.1935,0.184672619048,0.03,0.1635,0.1935,0.184672619048,0.026,0.1635,0.1895,0.159672619048,0.026,0.1635,0.1895,0.159672619048
34840000,95.905179127,133.422241154,77.1466481135,0.636,0.172,0.464,0.016,0.164,0.18,0.0964285714286,0.016,0.164,0.18,0.0964285714286,0.016,0.164,0.18,0.0964285714286,0.016,0.164,0.18,0.0964285714286,0.016,0.164,0.18,0.0964285714286,0.016,0.164,0.18,0.0964285714286
34840000,96.3344069182,138.399530162,75.3018452963,0.666,0.176,0.4945,0.019,0.175,0.194,0.109980237154,0.019,0.175,0.194,0.109980237154,0.019,0.175,0.194,0.109980237154,0.019,0.175,0.194,0.109980237154,0.019,0.175,0.194,0.109980237154,0.019,0.175,0.194,0.109980237154
34840000,97.0208639942,134.761040845,78.1507755687,0.6595,0.1975,0.3925,0.012,0.196,0.208,0.0574936061381,0.012,0.196,0.208,0.0574936061381,0.012,0.196,0.208,0.0574936061381,0.012,0.196,0.208,0.0574936061381,0.012,0.196,0.208,0.0574936061381,0.012,0.196,0.208,0.0574936061381
34840000,97.0893742979,138.737413791,76.2653545514,0.667,0.1755,0.4955,0.017,0.1725,0.1895,0.099053030303,0.017,0.1725,0.1895,0.099053030303,0.017,0.1725,0.1895,0.099053030303,0.017,0.1725,0.1895,0.099053030303,0.017,0.1725,0.1895,0.099053030303,0.017,0.1725,0.1895,0.099053030303
34840000,97.3240145372,139.485304529,76.2433695413,0.6755,0.166,0.4955,0.008,0.166,0.174,0.0482687697505,0.008,0.166,0.174,0.0482687697505,0.008,0.166,0.174,0.0482687697505,0.008,0.166,0.174,0.0482687697505,0.008,0.166,0.174,0.0482687697505,0.008,0.166,0.174,0.0482687697505
34840000,97.3617898714,139.738152865,76.1736083746,0.6625,0.173,0.488,0.0125,0.1565,0.169,0.0822195165945,0.0125,0.1565,0.169,0.0822195165945,0.0125,0.1565,0.169,0.0822195165945,0.0125,0.1565,0.169,0.0822195165945,0.0125,0.1565,0.169,0.0822195165945,0.0125,0.1565,0.169,0.0822195165945
34840000,97.732602463,140.990796782,76.1035053037,0.7045,0.183,0.5255,0.016,0.1625,0.1785,0.105439903234,0.016,0.1625,0.1785,0.105439903234,0.016,0.1565,0.1725,0.113773236567,0.016,0.1565,0.1725,0.113773236567,0.016,0.1565,0.1725,0.113773236567,0.016,0.1565,0.1725,0.113773236567
34840000,98.0142291589,141.295748997,76.37346924,0.7025,0.188,0.517,0.0115,0.1835,0.195,0.0625323498965,0.0115,0.1835,0.195,0.0625323498965,0.0115,0.1835,0.195,0.0625323498965,0.0115,0.1835,0.195,0.0625323498965,0.0115,0.1835,0.195,0.0625323498965,0.0115,0.1835,0.195,0.0625323498965
34840000,98.2323212906,136.322121231,79.1874213204,0.627,0.2145,0.4415,0.009,0.1965,0.2055,0.0493442644904,0.009,0.1965,0.2055,0.0493442644904,0.009,0.1965,0.2055,0.0493442644904,0.009,0.1965,0.2055,0.0493442644904,0.009,0.1965,0.2055,0.0493442644904,0.009,0.1965,0.2055,0.0493442644904
34840000,98.3580822277,140.724828898,77.1747088928,0.673,0.175,0.4975,0.0265,0.169,0.1955,0.158151059467,0.0265,0.169,0.1955,0.158151059467,0.0265,0.169,0.1955,0.158151059467,0.0265,0.169,0.1955,0.158151059467,0.0265,0.169,0.1955,0.158151059467,0.0265,0.169,0.1955,0.158151059467
34840000,98.9466710301,141.694508727,77.5727521816,0.6595,0.174,0.4845,0.015,0.173,0.188,0.0865800865801,0.015,0.173,0.188,0.0865800865801,0.015,0.173,0.188,0.0865800865801,0.015,0.173,0.188,0.0865800865801,0.015,0.173,0.188,0.0865800865801,0.015,0.173,0.188,0.0865800865801
34840000,99.6355317523,144.030871232,77.4378620126,0.6755,0.1685,0.4975,0.009,0.1575,0.1665,0.0568217418546,0.009,0.1575,0.1665,0.0568217418546,0.009,0.1575,0.1665,0.0568217418546,0.009,0.1575,0.1665,0.0568217418546,0.009,0.1535,0.1625,0.0582837301587,0.009,0.1535,0.1625,0.0582837301587
34840000,99.6393956973,142.053943502,78.4321217948,0.6925,0.1895,0.4495,0.0135,0.189,0.2025,0.0714205721814,0.0135,0.189,0.2025,0.0714205721814,0.0135,0.189,0.2025,0.0714205721814,0.0135,0.189,0.2025,0.0714205721814,0.0135,0.189,0.2025,0.0714205721814,0.0135,0.189,0.2025,0.0714205721814
34840000,99.8359790085,145.027953515,77.2399917554,0.674,0.166,0.51,0.0165,0.1595,0.176,0.103336466165,0.0165,0.1595,0.176,0.103336466165,0.0165,0.1595,0.176,0.103336466165,0.0165,0.1595,0.176,0.103336466165,0.0165,0.1595,0.176,0.103336466165,0.0165,0.1595,0.176,0.103336466165
34840000,99.849869465,144.768344662,77.3906318666,0.668,0.386,0.5105,0.0175,0.3755,0.393,0.0536564417679,0.0175,0.3755,0.393,0.0536564417679,0.0175,0.3755,0.393,0.0536564417679,0.0175,0.3755,0.393,0.0536564417679,0.0175,0.3755,0.393,0.0536564417679,0.0175,0.3755,0.393,0.0536564417679
34840000,100.113183854,142.616594258,78.8614786523,0.675,0.1795,0.495,0.0125,0.175,0.1875,0.0722937841144,0.0125,0.175,0.1875,0.0722937841144,0.0125,0.175,0.1875,0.0722937841144,0.0125,0.175,0.1875,0.0722937841144,0.0125,0.175,0.1875,0.0722937841144,0.0125,0.175,0.1875,0.0722937841144
34840000,100.352368942,144.417711019,78.3196979041,0.682,0.1755,0.511,0.02,0.1725,0.1925,0.113798345295,0.02,0.1725,0.1925,0.113798345295,0.02,0.1725,0.1925,0.113798345295,0.02,0.1725,0.1925,0.113798345295,0.02,0.1725,0.1925,0.113798345295,0.02,0.172,0.192,0.113981093833
34840000,100.760510231,146.116438003,78.0825463446,0.679,0.168,0.509,0.014,0.1645,0.1785,0.0860702893598,0.014,0.1645,0.1785,0.0860702893598,0.014,0.1645,0.1785,0.0860702893598,0.014,0.1645,0.1785,0.0860702893598,0.014,0.1645,0.1785,0.0860702893598,0.014,0.1645,0.1785,0.0860702893598
34840000,101.096573653,145.298964468,78.9953782459,0.6715,0.168,0.4315,0.0095,0.1595,0.169,0.0596288515406,0.0095,0.1595,0.169,0.0596288515406,0.0095,0.1595,0.169,0.0596288515406,0.0095,0.1595,0.169,0.0596288515406,0.0095,0.1595,0.169,0.0596288515406,0.0095,0.1595,0.169,0.0596288515406
34840000,101.430524672,145.563183628,79.3641951931,0.671,0.166,0.4955,0.014,0.1585,0.1725,0.0923585004177,0.014,0.1585,0.1725,0.0923585004177,0.014,0.1585,0.1725,0.0923585004177,0.014,0.1585,0.1725,0.0923585004177,0.014,0.1585,0.1725,0.0923585004177,0.014,0.1585,0.1725,0.0923585004177
34840000,101.658929039,147.06280818,78.9569894686,0.6735,0.198,0.4865,0.022,0.1895,0.2115,0.138200971178,0.0185,0.1895,0.208,0.117367637845,0.0185,0.1895,0.208,0.117367637845,0.0185,0.1895,0.208,0.117367637845,0.0185,0.1895,0.208,0.117367637845,0.0185,0.1895,0.208,0.117367637845
34840000,102.745934501,147.570569413,80.3336170455,0.652,0.1645,0.475,0.021,0.152,0.173,0.140928301145,0.021,0.152,0.173,0.140928301145,0.021,0.152,0.173,0.140928301145,0.021,0.152,0.173,0.140928301145,0.021,0.152,0.173,0.140928301145,0.021,0.152,0.173,0.140928301145
34840000,103.11567755,148.021955895,80.6625383783,0.648,0.1685,0.466,0.0155,0.1645,0.18,0.094406512605,0.0155,0.1625,0.178,0.0951009570495,0.0155,0.1625,0.178,0.0951009570495,0.0155,0.1625,0.178,0.0951009570495,0.0155,0.1625,0.178,0.0951009570495,0.0155,0.1625,0.178,0.0951009570495
34840000,103.286956913,148.157274882,80.8517979291,0.6445,0.1605,0.4825,0.022,0.149,0.171,0.156205759331,0.022,0.149,0.171,0.156205759331,0.022,0.149,0.171,0.156205759331,0.022,0.149,0.171,0.156205759331,0.022,0.149,0.171,0.156205759331,0.022,0.149,0.171,0.156205759331
34840000,103.366578323,148.868117367,80.6158088003,0.6505,0.1615,0.491,0.039,0.1595,0.1985,0.243781328321,0.039,0.1595,0.1985,0.243781328321,0.039,0.1595,0.1985,0.243781328321,0.039,0.1595,0.1985,0.243781328321,0.039,0.1595,0.1985,0.243781328321,0.039,0.1595,0.1985,0.243781328321
34840000,103.789165676,149.116705918,81.1253955544,0.6465,0.1675,0.4785,0.0115,0.1575,0.169,0.0726973684211,0.0115,0.1575,0.169,0.0726973684211,0.0115,0.1575,0.169,0.0726973684211,0.0115,0.1575,0.169,0.0726973684211,0.0115,0.1575,0.169,0.0726973684211,0.0115,0.1575,0.169,0.0726973684211
34840000,104.874715603,150.092940926,82.2656029419,0.654,0.1765,0.4805,0.0165,0.1645,0.181,0.102814327485,0.0165,0.1645,0.181,0.102814327485,0.0165,0.1645,0.181,0.102814327485,0.0165,0.1645,0.181,0.102814327485,0.0165,0.1645,0.181,0.102814327485,0.0165,0.1645,0.181,0.102814327485
34840000,105.671840057,149.570116678,83.7227017464,0.621,0.1845,0.4545,0.02,0.166,0.186,0.129127809916,0.02,0.166,0.186,0.129127809916,0.02,0.166,0.186,0.129127809916,0.02,0.166,0.186,0.129127809916,0.02,0.162,0.182,0.133513774828,0.02,0.162,0.182,0.133513774828
34920000,83.4058379199,94.8933446737,77.662084543,0.76,0.1745,0.58,0.025,0.172,0.197,0.144264069264,0.025,0.172,0.197,0.144264069264,0.025,0.172,0.197,0.144264069264,0.025,0.172,0.197,0.144264069264,0.025,0.172,0.197,0.144264069264,0.025,0.172,0.197,0.144264069264
34920000,85.259350143,97.1556616941,79.3111943675,0.7775,0.177,0.5985,0.0135,0.1665,0.18,0.0808306695884,0.0135,0.1665,0.18,0.0808306695884,0.0135,0.1665,0.18,0.0808306695884,0.0135,0.1665,0.18,0.0808306695884,0.0135,0.1665,0.18,0.0808306695884,0.0135,0.1665,0.18,0.0808306695884
34920000,87.3775813402,99.6203125671,81.2562157268,0.7755,0.1675,0.608,0.011,0.1675,0.1785,0.0665178571429,0.011,0.1675,0.1785,0.0665178571429,0.011,0.1675,0.1785,0.0665178571429,0.011,0.1675,0.1785,0.0665178571429,0.0095,0.1675,0.177,0.0571428571429,0.0095,0.1675,0.177,0.0571428571429
34920000,87.5051872456,99.4132775977,81.5511420696,0.7545,0.1695,0.5885,0.008,0.1595,0.1675,0.0502249943039,0.008,0.1595,0.1675,0.0502249943039,0.008,0.1595,0.1675,0.0502249943039,0.008,0.1595,0.1675,0.0502249943039,0.008,0.1595,0.1675,0.0502249943039,0.008,0.1595,0.1675,0.0502249943039
34920000,87.816265034,98.8366090705,82.3060930158,0.754,0.167,0.5885,0.03,0.1625,0.1925,0.18630952381,0.03,0.1625,0.1925,0.18630952381,0.03,0.1625,0.1925,0.18630952381,0.03,0.1625,0.1925,0.18630952381,0.03,0.1625,0.1925,0.18630952381,0.03,0.1625,0.1925,0.18630952381
34920000,89.7556248731,99.9905238179,84.6381754008,0.735,0.1685,0.565,0.0125,0.1545,0.167,0.0803706709957,0.0125,0.1545,0.167,0.0803706709957,0.0125,0.1545,0.167,0.0803706709957,0.0125,0.1545,0.167,0.0803706709957,0.0125,0.1545,0.167,0.0803706709957,0.0125,0.1545,0.167,0.0803706709957
34920000,90.8158589459,102.563914338,84.94183125,0.75,0.164,0.58,0.014,0.1595,0.1735,0.0871162280702,0.014,0.1595,0.1735,0.0871162280702,0.014,0.1595,0.1735,0.0871162280702,0.014,0.1595,0.1735,0.0871162280702,0.014,0.1595,0.1735,0.0871162280702,0.014,0.1595,0.1735,0.0871162280702
34920000,91.0393345957,103.365479129,84.876262329,0.7645,0.1645,0.591,0.008,0.1475,0.1555,0.0545919025505,0.008,0.1475,0.1555,0.0545919025505,0.008,0.1475,0.1555,0.0545919025505,0.008,0.1475,0.1555,0.0545919025505,0.008,0.1475,0.1555,0.0545919025505,0.008,0.1475,0.1555,0.0545919025505
34920000,93.5485450854,106.046622866,87.2995061951,0.741,0.1945,0.565,0.009,0.1915,0.2005,0.0509045705311,0.0085,0.1915,0.2,0.0469983205311,0.0085,0.1915,0.2,0.0469983205311,0.0085,0.1915,0.2,0.0469983205311,0.0085,0.1915,0.2,0.0469983205311,0.0085,0.1915,0.2,0.0469983205311
34960000,88.2053410113,104.765499919,79.9252615573,0.74,0.179,0.559,0.0335,0.175,0.2085,0.191774891775,0.0335,0.175,0.2085,0.191774891775,0.0335,0.175,0.2085,0.191774891775,0.0335,0.175,0.2085,0.191774891775,0.0335,0.175,0.2085,0.191774891775,0.0335,0.175,0.2085,0.191774891775
34960000,90.6478064158,106.730810528,82.6063043598,0.707,0.1695,0.541,0.019,0.163,0.182,0.118287566743,0.019,0.163,0.182,0.118287566743,0.019,0.163,0.182,0.118287566743,0.019,0.163,0.182,0.118287566743,0.019,0.163,0.182,0.118287566743,0.019,0.163,0.182,0.118287566743
34960000,90.8982296663,108.551981298,82.0713538504,0.739,0.1745,0.5625,0.01,0.1695,0.1795,0.0593053574318,0.01,0.1695,0.1795,0.0593053574318,0.01,0.1695,0.1795,0.0593053574318,0.01,0.1675,0.1775,0.0600793512398,0.01,0.1675,0.1775,0.0600793512398,0.01,0.1675,0.1775,0.0600793512398
34960000,91.6299456949,111.249108133,81.8203644761,0.752,0.19,0.5715,0.009,0.1855,0.1945,0.0497344367589,0.009,0.1855,0.1945,0.0497344367589,0.009,0.1855,0.1945,0.0497344367589,0.009,0.185,0.194,0.0497745008615,0.009,0.185,0.194,0.0497745008615,0.009,0.185,0.194,0.0497745008615
34960000,91.6848646199,106.431444954,84.3115744527,0.747,0.1815,0.5705,0.025,0.1695,0.1945,0.148024891775,0.025,0.1695,0.1945,0.148024891775,0.025,0.1695,0.1945,0.148024891775,0.025,0.1695,0.1945,0.148024891775,0.025,0.1695,0.1945,0.148024891775,0.025,0.1695,0.1945,0.148024891775
34960000,92.0020258312,109.126373384,83.4398520548,0.7375,0.1765,0.5615,0.026,0.1735,0.1995,0.152390319206,0.026,0.1735,0.1995,0.152390319206,0.026,0.1735,0.1995,0.152390319206,0.026,0.1735,0.1995,0.152390319206,0.023,0.1735,0.1965,0.132653477101,0.023,0.1735,0.1965,0.132653477101
34960000,92.3800925113,111.048179986,83.046048774,0.709,0.1875,0.5315,0.011,0.186,0.197,0.0587182971014,0.011,0.186,0.197,0.0587182971014,0.011,0.186,0.197,0.0587182971014,0.011,0.186,0.197,0.0587182971014,0.011,0.186,0.197,0.0587182971014,0.011,0.186,0.197,0.0587182971014
34960000,93.231454721,109.222065091,85.236149536,0.7455,0.1765,0.538,0.008,0.174,0.182,0.0460074345944,0.008,0.174,0.182,0.0460074345944,0.008,0.174,0.182,0.0460074345944,0.008,0.174,0.182,0.0460074345944,0.008,0.174,0.182,0.0460074345944,0.008,0.174,0.182,0.0460074345944
34960000,93.2494147816,109.217633277,85.2653055341,0.762,0.179,0.576,0.018,0.167,0.185,0.109902597403,0.018,0.167,0.185,0.109902597403,0.018,0.167,0.185,0.109902597403,0.018,0.167,0.185,0.109902597403,0.018,0.167,0.185,0.109902597403,0.018,0.167,0.185,0.109902597403
34960000,93.6298613598,112.179275811,84.3551541339,0.733,0.1805,0.4615,0.0115,0.173,0.1845,0.0667152069898,0.0115,0.173,0.1845,0.0667152069898,0.0115,0.173,0.1845,0.0667152069898,0.0115,0.173,0.1845,0.0667152069898,0.0115,0.173,0.1845,0.0667152069898,0.0115,0.173,0.1845,0.0667152069898
34960000,94.1138345599,113.274118033,84.5336928236,0.7445,0.1745,0.5685,0.0145,0.1685,0.183,0.0861742424242,0.0145,0.1685,0.183,0.0861742424242,0.0145,0.1685,0.183,0.0861742424242,0.0145,0.1605,0.175,0.0911867737526,0.0145,0.1605,0.175,0.0911867737526,0.0145,0.1605,0.175,0.0911867737526
34960000,94.4732885997,110.622374346,86.3987457266,0.7375,0.176,0.5585,0.037,0.1725,0.2095,0.212270021645,0.037,0.1725,0.2095,0.212270021645,0.037,0.1725,0.2095,0.212270021645,0.037,0.1725,0.2095,0.212270021645,0.037,0.172,0.209,0.212434495329,0.037,0.172,0.209,0.212434495329
34960000,94.8828755214,110.609390822,87.019617871,0.702,0.17,0.525,0.02,0.1635,0.1835,0.122938738893,0.02,0.1635,0.1835,0.122938738893,0.02,0.1635,0.1835,0.122938738893,0.02,0.1635,0.1835,0.122938738893,0.02,0.1635,0.1835,0.122938738893,0.02,0.1635,0.1835,0.122938738893
34960000,95.8791064728,114.713174252,86.462072583,0.754,0.179,0.576,0.0085,0.176,0.1845,0.0486166007905,0.0085,0.176,0.1845,0.0486166007905,0.0085,0.176,0.1845,0.0486166007905,0.0085,0.176,0.1845,0.0486166007905,0.0085,0.176,0.1845,0.0486166007905,0.0085,0.176,0.1845,0.0486166007905
34960000,95.9423775362,116.195386291,85.8158731588,0.7245,0.179,0.5435,0.014,0.171,0.185,0.0825451722191,0.014,0.171,0.185,0.0825451722191,0.014,0.171,0.185,0.0825451722191,0.014,0.1705,0.1845,0.0826804536044,0.014,0.1705,0.1845,0.0826804536044,0.014,0.1705,0.1845,0.0826804536044
34960000,97.6349033246,110.625050126,91.1398299241,0.748,0.1865,0.563,0.011,0.1835,0.1945,0.0565923659674,0.011,0.1835,0.1945,0.0565923659674,0.011,0.1835,0.1945,0.0565923659674,0.011,0.1835,0.1945,0.0565923659674,0.011,0.1835,0.1945,0.0565923659674,0.011,0.1835,0.1945,0.0565923659674
34960000,97.8787993877,118.494977153,87.5707105052,0.7145,0.2365,0.504,0.0115,0.217,0.2285,0.0595102813853,0.0115,0.217,0.2285,0.0595102813853,0.0115,0.217,0.2285,0.0595102813853,0.0115,0.217,0.2285,0.0595102813853,0.0115,0.217,0.2285,0.0595102813853,0.0115,0.217,0.2285,0.0595102813853
34960000,100.444981774,119.547463589,90.8937408665,0.7155,0.1715,0.5415,0.012,0.161,0.173,0.0757575757576,0.012,0.161,0.173,0.0757575757576,0.012,0.161,0.173,0.0757575757576,0.012,0.161,0.173,0.0757575757576,0.012,0.161,0.173,0.0757575757576,0.012,0.161,0.173,0.0757575757576
35000000,101.037114197,125.335462926,88.8879398321,0.675,0.172,0.506,0.015,0.164,0.179,0.096766537556,0.015,0.164,0.179,0.096766537556,0.015,0.164,0.179,0.096766537556,0.009,0.164,0.173,0.0550998708893,0.009,0.164,0.173,0.0550998708893,0.009,0.164,0.173,0.0550998708893
35000000,101.203691583,122.735267809,90.4379034698,0.6875,0.1715,0.5195,0.008,0.1715,0.1795,0.0466720779221,0.008,0.1715,0.1795,0.0466720779221,0.008,0.1715,0.1795,0.0466720779221,0.008,0.1715,0.1795,0.0466720779221,0.008,0.1715,0.1795,0.0466720779221,0.008,0.1715,0.1795,0.0466720779221
35000000,104.337344364,124.991914514,94.0100592888,0.6775,0.1815,0.502,0.0245,0.179,0.2035,0.139573187229,0.0245,0.179,0.2035,0.139573187229,0.0245,0.179,0.2035,0.139573187229,0.0245,0.179,0.2035,0.139573187229,0.0245,0.179,0.2035,0.139573187229,0.0245,0.179,0.2035,0.139573187229
35000000,104.684184733,128.269000346,92.8917769268,0.678,0.17,0.506,0.018,0.158,0.176,0.118506493506,0.018,0.158,0.176,0.118506493506,0.018,0.158,0.176,0.118506493506,0.018,0.158,0.176,0.118506493506,0.018,0.158,0.176,0.118506493506,0.018,0.158,0.176,0.118506493506
35000000,105.079057349,127.519828947,93.8586715493,0.6775,0.1685,0.5065,0.008,0.1685,0.1765,0.0474972943723,0.008,0.1685,0.1765,0.0474972943723,0.008,0.1685,0.1765,0.0474972943723,0.008,0.1685,0.1765,0.0474972943723,0.008,0.1685,0.1765,0.0474972943723,0.008,0.1685,0.1765,0.0474972943723
35040000,87.2330618843,130.169528917,65.7648283679,0.756,0.272,0.492,0.016,0.272,0.288,0.0553359683794,0.016,0.272,0.288,0.0553359683794,0.016,0.272,0.288,0.0553359683794,0.016,0.272,0.288,0.0553359683794,0.016,0.272,0.288,0.0553359683794,0.016,0.272,0.288,0.0553359683794
35080000,87.2489619869,131.785406558,64.9807397014,0.725,0.1925,0.541,0.0115,0.17,0.1815,0.0696708937198,0.0115,0.17,0.1815,0.0696708937198,0.0115,0.17,0.1815,0.0696708937198,0.0115,0.17,0.1815,0.0696708937198,0.0115,0.17,0.1815,0.0696708937198,0.0105,0.17,0.1805,0.063989075538
35080000,87.9488833942,137.04277082,63.4019396815,0.808,0.408,0.6,0.016,0.408,0.424,0.0392156862745,0.016,0.408,0.424,0.0392156862745,0.016,0.408,0.424,0.0392156862745,0.016,0.408,0.424,0.0392156862745,0.016,0.408,0.424,0.0392156862745,0.016,0.408,0.424,0.0392156862745
35080000,88.1683863461,136.667242888,63.9189580753,0.772,0.221,0.4715,0.0095,0.215,0.2245,0.0474946249403,0.0095,0.215,0.2245,0.0474946249403,0.0095,0.215,0.2245,0.0474946249403,0.0095,0.215,0.2245,0.0474946249403,0.0095,0.215,0.2245,0.0474946249403,0.0095,0.215,0.2245,0.0474946249403
35080000,91.050992342,139.392075181,66.8804509226,0.7515,0.2085,0.5585,0.023,0.195,0.218,0.115094198565,0.023,0.195,0.218,0.115094198565,0.023,0.195,0.218,0.115094198565,0.023,0.195,0.218,0.115094198565,0.023,0.195,0.218,0.115094198565,0.023,0.195,0.218,0.115094198565
35120000,85.2243749411,132.327312949,61.6729059371,0.7955,0.194,0.603,0.0135,0.188,0.2015,0.0721809123847,0.0135,0.188,0.2015,0.0721809123847,0.0135,0.188,0.2015,0.0721809123847,0.0135,0.188,0.2015,0.0721809123847,0.0135,0.188,0.2015,0.0721809123847,0.0135,0.188,0.2015,0.0721809123847
35120000,85.3319682605,132.821423949,61.587240416,0.7915,0.2,0.5945,0.0325,0.1985,0.231,0.158392558528,0.0325,0.1985,0.231,0.158392558528,0.0325,0.1985,0.231,0.158392558528,0.0325,0.1985,0.231,0.158392558528,0.0325,0.1985,0.231,0.158392558528,0.0325,0.1985,0.231,0.158392558528
35120000,87.5783223205,135.310884204,63.7120413787,0.7705,0.196,0.5645,0.0355,0.1885,0.224,0.181735287659,0.0355,0.1845,0.22,0.183629227053,0.0355,0.1845,0.22,0.183629227053,0.0355,0.1845,0.22,0.183629227053,0.0355,0.1845,0.22,0.183629227053,0.0355,0.1845,0.22,0.183629227053
35120000,87.6187963647,136.43473406,63.2108275171,0.7775,0.198,0.5815,0.015,0.196,0.211,0.0776782773386,0.015,0.196,0.211,0.0776782773386,0.015,0.196,0.211,0.0776782773386,0.015,0.196,0.211,0.0776782773386,0.013,0.196,0.209,0.066314640975,0.013,0.196,0.209,0.066314640975
35120000,87.7864985238,135.316342403,64.021576584,0.7635,0.2,0.571,0.0135,0.1955,0.209,0.0700072843823,0.0135,0.1955,0.209,0.0700072843823,0.0135,0.1955,0.209,0.0700072843823,0.0135,0.1955,0.209,0.0700072843823,0.0135,0.1955,0.209,0.0700072843823,0.0135,0.1955,0.209,0.0700072843823
35120000,88.1817990356,137.040747229,63.7523249389,0.782,0.195,0.587,0.015,0.1555,0.1705,0.101117424242,0.015,0.1555,0.1705,0.101117424242,0.015,0.1555,0.1705,0.101117424242,0.015,0.1555,0.1705,0.101117424242,0.015,0.1555,0.1705,0.101117424242,0.015,0.1555,0.1705,0.101117424242
35120000,88.5163272968,136.188551835,64.6802150277,0.797,0.1915,0.609,0.027,0.178,0.205,0.146401515152,0.027,0.178,0.205,0.146401515152,0.027,0.178,0.205,0.146401515152,0.027,0.178,0.205,0.146401515152,0.027,0.178,0.205,0.146401515152,0.027,0.178,0.205,0.146401515152
35120000,88.6923977235,136.87718066,64.6000062551,0.788,0.191,0.5805,0.016,0.186,0.202,0.0870388669302,0.016,0.186,0.202,0.0870388669302,0.016,0.186,0.202,0.0870388669302,0.016,0.186,0.202,0.0870388669302,0.016,0.186,0.202,0.0870388669302,0.016,0.186,0.202,0.0870388669302
35120000,88.9880060677,138.867833052,64.0480925756,0.7945,0.1905,0.609,0.011,0.1665,0.1775,0.0680009838083,0.011,0.1665,0.1775,0.0680009838083,0.011,0.1665,0.1775,0.0680009838083,0.011,0.1665,0.1775,0.0680009838083,0.011,0.1665,0.1775,0.0680009838083,0.011,0.1665,0.1775,0.0680009838083
35120000,89.3260963309,137.501499809,65.2383945916,0.7675,0.197,0.573,0.011,0.187,0.198,0.0603091845226,0.011,0.187,0.198,0.0603091845226,0.011,0.187,0.198,0.0603091845226,0.011,0.187,0.198,0.0603091845226,0.011,0.187,0.198,0.0603091845226,0.011,0.187,0.198,0.0603091845226
35120000,89.3354620058,137.717087323,65.1446493473,0.7455,0.184,0.56,0.0085,0.176,0.1845,0.0483695652174,0.0085,0.176,0.1845,0.0483695652174,0.0085,0.176,0.1845,0.0483695652174,0.0085,0.176,0.1845,0.0483695652174,0.0085,0.176,0.1845,0.0483695652174,0.0085,0.176,0.1845,0.0483695652174
35120000,90.4626494703,138.368210131,66.5098691401,0.769,0.195,0.5775,0.026,0.1665,0.1925,0.153440950656,0.026,0.1665,0.1925,0.153440950656,0.026,0.1665,0.1925,0.153440950656,0.026,0.1665,0.1925,0.153440950656,0.026,0.1665,0.1925,0.153440950656,0.026,0.1665,0.1925,0.153440950656
35120000,90.5638370757,139.80876908,65.9413710736,0.776,0.1925,0.5815,0.017,0.187,0.204,0.0895158102767,0.017,0.187,0.204,0.0895158102767,0.017,0.187,0.204,0.0895158102767,0.017,0.187,0.204,0.0895158102767,0.016,0.187,0.203,0.0845158102767,0.016,0.187,0.203,0.0845158102767
35120000,90.9607135503,141.219850334,65.8311451582,0.7715,0.1935,0.5795,0.0225,0.1935,0.216,0.116050724638,0.0225,0.1935,0.216,0.116050724638,0.0225,0.1935,0.216,0.116050724638,0.0225,0.1935,0.216,0.116050724638,0.0225,0.1935,0.216,0.116050724638,0.0225,0.1935,0.216,0.116050724638
35120000,91.2494206552,140.974639685,66.3868111403,0.768,0.1895,0.5825,0.021,0.1845,0.2055,0.115183622856,0.021,0.1845,0.2055,0.115183622856,0.021,0.1845,0.2055,0.115183622856,0.021,0.1845,0.2055,0.115183622856,0.021,0.1845,0.2055,0.115183622856,0.021,0.1845,0.2055,0.115183622856
35120000,91.6734998928,140.894718497,67.0628905908,0.7535,0.1905,0.5635,0.0095,0.1775,0.187,0.0533992094862,0.0095,0.1775,0.187,0.0533992094862,0.0095,0.1775,0.187,0.0533992094862,0.0095,0.1775,0.187,0.0533992094862,0.0095,0.1775,0.187,0.0533992094862,0.0095,0.1775,0.187,0.0533992094862
35120000,91.6980521413,142.598058038,66.2480491929,0.795,0.193,0.5985,0.025,0.1805,0.2055,0.136716485507,0.025,0.1805,0.2055,0.136716485507,0.025,0.1805,0.2055,0.136716485507,0.025,0.1805,0.2055,0.136716485507,0.025,0.1805,0.2055,0.136716485507,0.025,0.1805,0.2055,0.136716485507
35120000,91.8689776527,141.106617002,67.250157978,0.77,0.1865,0.585,0.038,0.1685,0.2065,0.230080698287,0.038,0.1685,0.2065,0.230080698287,0.038,0.1685,0.2065,0.230080698287,0.038,0.1685,0.2065,0.230080698287,0.038,0.1685,0.2065,0.230080698287,0.038,0.1685,0.2065,0.230080698287
35120000,92.3281980915,142.354660348,67.3149669632,0.766,0.1885,0.5785,0.0145,0.1875,0.202,0.0765398550725,0.0145,0.1855,0.2,0.0784337944664,0.0145,0.1855,0.2,0.0784337944664,0.0145,0.1855,0.2,0.0784337944664,0.0145,0.1855,0.2,0.0784337944664,0.0145,0.1855,0.2,0.0784337944664
35120000,92.3560866527,143.290534582,66.888862688,0.7715,0.1955,0.588,0.012,0.192,0.204,0.0641131815045,0.012,0.192,0.204,0.0641131815045,0.012,0.192,0.204,0.0641131815045,0.012,0.192,0.204,0.0641131815045,0.012,0.192,0.204,0.0641131815045,0.012,0.192,0.204,0.0641131815045
35120000,92.3817063431,143.194049479,66.9755347754,0.7745,0.1845,0.5015,0.017,0.1675,0.1845,0.10937774484,0.017,0.1675,0.1845,0.10937774484,0.017,0.1675,0.1845,0.10937774484,0.017,0.1675,0.1845,0.10937774484,0.017,0.1675,0.1845,0.10937774484,0.017,0.1675,0.1845,0.10937774484
35120000,92.638405833,145.152477525,66.3813699869,0.7965,0.1855,0.612,0.02,0.184,0.204,0.106962285903,0.02,0.184,0.204,0.106962285903,0.02,0.184,0.204,0.106962285903,0.02,0.184,0.204,0.106962285903,0.02,0.184,0.204,0.106962285903,0.02,0.184,0.204,0.106962285903
35120000,92.7741318269,144.184334888,67.0690302961,0.7605,0.1835,0.5775,0.016,0.1675,0.1835,0.0936589359064,0.0155,0.1655,0.181,0.0921469674826,0.0155,0.1655,0.181,0.0921469674826,0.015,0.1655,0.1805,0.089542800816,0.015,0.1655,0.1805,0.089542800816,0.015,0.1655,0.1805,0.089542800816
35120000,92.7841089229,142.95172857,67.7002990993,0.7735,0.1835,0.5835,0.0195,0.18,0.1995,0.108125117636,0.0195,0.178,0.1975,0.109841364776,0.0195,0.178,0.1975,0.109841364776,0.0195,0.178,0.1975,0.109841364776,0.0195,0.178,0.1975,0.109841364776,0.0195,0.178,0.1975,0.109841364776
35120000,92.8096350981,143.742141258,67.343382018,0.773,0.1885,0.572,0.009,0.172,0.181,0.0521775318979,0.009,0.172,0.181,0.0521775318979,0.009,0.172,0.181,0.0521775318979,0.009,0.172,0.181,0.0521775318979,0.009,0.172,0.181,0.0521775318979,0.009,0.172,0.181,0.0521775318979
35120000,92.8162460551,142.9851275,67.7318053327,0.7615,0.185,0.585,0.0105,0.184,0.1945,0.0570975672878,0.0105,0.184,0.1945,0.0570975672878,0.0105,0.184,0.1945,0.0570975672878,0.0105,0.184,0.1945,0.0570975672878,0.0105,0.184,0.1945,0.0570975672878,0.0105,0.184,0.1945,0.0570975672878
35120000,92.8780024552,144.346457406,67.1437749799,0.782,0.189,0.5885,0.008,0.184,0.192,0.0436282467532,0.008,0.1835,0.1915,0.0437635281385,0.008,0.1835,0.1915,0.0437635281385,0.008,0.1835,0.1915,0.0437635281385,0.008,0.1835,0.1915,0.0437635281385,0.008,0.1835,0.1915,0.0437635281385
35120000,92.9171842128,143.904800319,67.4233761596,0.7865,0.188,0.592,0.014,0.1845,0.1985,0.0759737318841,0.014,0.1845,0.1985,0.0759737318841,0.014,0.1845,0.1985,0.0759737318841,0.014,0.1845,0.1985,0.0759737318841,0.014,0.1845,0.1985,0.0759737318841,0.014,0.1845,0.1985,0.0759737318841
35120000,92.927285156,144.116711764,67.3325718519,0.7595,0.1805,0.573,0.013,0.1785,0.1915,0.0732931018257,0.013,0.1785,0.1915,0.0732931018257,0.013,0.1785,0.1915,0.0732931018257,0.013,0.1785,0.1915,0.0732931018257,0.013,0.1785,0.1915,0.0732931018257,0.01,0.177,0.187,0.0575933410602
35120000,93.0379446604,144.510497923,67.3016680288,0.779,0.1835,0.4955,0.0105,0.1745,0.185,0.0602826269946,0.0105,0.1745,0.185,0.0602826269946,0.0105,0.1745,0.185,0.0602826269946,0.0105,0.1745,0.185,0.0602826269946,0.0105,0.1745,0.185,0.0602826269946,0.0105,0.1745,0.185,0.0602826269946
35120000,93.1069492936,143.934140793,67.6933535442,0.7675,0.2335,0.5685,0.0245,0.233,0.2575,0.123809936787,0.0245,0.233,0.2575,0.123809936787,0.0245,0.233,0.2575,0.123809936787,0.0245,0.233,0.2575,0.123809936787,0.0245,0.233,0.2575,0.123809936787,0.0245,0.233,0.2575,0.123809936787
35120000,93.2501354887,145.368698878,67.190853794,0.7785,0.1845,0.5895,0.012,0.184,0.196,0.0652276844532,0.012,0.184,0.196,0.0652276844532,0.012,0.184,0.196,0.0652276844532,0.012,0.184,0.196,0.0652276844532,0.012,0.184,0.196,0.0652276844532,0.012,0.184,0.196,0.0652276844532
35120000,93.4354005037,144.995225883,67.6554878138,0.7755,0.2165,0.4795,0.013,0.2145,0.2275,0.0640219155844,0.013,0.2145,0.2275,0.0640219155844,0.013,0.2145,0.2275,0.0640219155844,0.013,0.2145,0.2275,0.0640219155844,0.013,0.2145,0.2275,0.0640219155844,0.013,0.2145,0.2275,0.0640219155844
35120000,93.4653946044,145.622956397,67.3866137082,0.781,0.196,0.5975,0.012,0.187,0.199,0.0698183127656,0.012,0.187,0.199,0.0698183127656,0.012,0.187,0.199,0.0698183127656,0.012,0.187,0.199,0.0698183127656,0.012,0.187,0.199,0.0698183127656,0.012,0.187,0.199,0.0698183127656
35120000,93.5129804335,144.755175545,67.891882878,0.7615,0.181,0.535,0.008,0.178,0.186,0.0453684902054,0.008,0.178,0.186,0.0453684902054,0.008,0.178,0.186,0.0453684902054,0.008,0.178,0.186,0.0453684902054,0.008,0.178,0.186,0.0453684902054,0.008,0.178,0.186,0.0453684902054
35120000,93.7722451334,143.798681622,68.7590268891,0.703,0.187,0.522,0.021,0.182,0.203,0.115118577075,0.021,0.182,0.203,0.115118577075,0.021,0.182,0.203,0.115118577075,0.021,0.182,0.203,0.115118577075,0.021,0.182,0.203,0.115118577075,0.021,0.182,0.203,0.115118577075
35120000,93.8654775731,145.524042658,68.0361950307,0.76,0.1885,0.5725,0.011,0.184,0.195,0.0589285714286,0.011,0.184,0.195,0.0589285714286,0.011,0.184,0.195,0.0589285714286,0.011,0.184,0.195,0.0589285714286,0.011,0.184,0.195,0.0589285714286,0.011,0.184,0.195,0.0589285714286
35120000,93.9264846478,145.75447773,68.0124881067,0.7645,0.191,0.569,0.009,0.177,0.186,0.05045995671,0.009,0.177,0.186,0.05045995671,0.009,0.177,0.186,0.05045995671,0.009,0.177,0.186,0.05045995671,0.009,0.177,0.186,0.05045995671,0.009,0.177,0.186,0.05045995671
35120000,93.9388113659,145.850832576,67.9828007609,0.752,0.194,0.5675,0.018,0.1815,0.1995,0.100446428571,0.018,0.1815,0.1995,0.100446428571,0.018,0.1815,0.1995,0.100446428571,0.018,0.1815,0.1995,0.100446428571,0.018,0.1815,0.1995,0.100446428571,0.018,0.1815,0.1995,0.100446428571
35120000,94.1010834828,145.95155656,68.1758469442,0.7575,0.187,0.5685,0.026,0.182,0.208,0.143181818182,0.026,0.182,0.208,0.143181818182,0.026,0.182,0.208,0.143181818182,0.026,0.182,0.208,0.143181818182,0.026,0.182,0.208,0.143181818182,0.026,0.182,0.208,0.143181818182
35120000,94.1301839651,138.899973655,71.7452891202,0.686,0.2005,0.5,0.011,0.194,0.205,0.0587917517265,0.011,0.194,0.205,0.0587917517265,0.011,0.194,0.205,0.0587917517265,0.011,0.194,0.205,0.0587917517265,0.011,0.194,0.205,0.0587917517265,0.011,0.194,0.205,0.0587917517265
35120000,94.3460303041,145.193511596,68.9222896583,0.7535,0.1935,0.567,0.0305,0.1915,0.222,0.158967391304,0.0305,0.1915,0.222,0.158967391304,0.0305,0.1915,0.222,0.158967391304,0.0305,0.1915,0.222,0.158967391304,0.0305,0.1915,0.222,0.158967391304,0.0305,0.1915,0.222,0.158967391304
35120000,94.7464856688,147.233303155,68.5030769256,0.7545,0.1925,0.5665,0.0195,0.1925,0.212,0.10125,0.0195,0.1925,0.212,0.10125,0.0195,0.1925,0.212,0.10125,0.0195,0.1925,0.212,0.10125,0.0165,0.1925,0.209,0.085625,0.0165,0.1925,0.209,0.085625
35120000,94.7725083914,146.512751907,68.9023866334,0.7605,0.1865,0.578,0.031,0.16,0.191,0.206051665726,0.031,0.16,0.191,0.206051665726,0.031,0.16,0.191,0.206051665726,0.031,0.16,0.191,0.206051665726,0.031,0.16,0.191,0.206051665726,0.031,0.16,0.191,0.206051665726
35120000,94.9496848501,147.047623529,68.9007155105,0.7515,0.1925,0.557,0.0125,0.189,0.2015,0.0659173254282,0.0125,0.189,0.2015,0.0659173254282,0.0125,0.189,0.2015,0.0659173254282,0.0125,0.189,0.2015,0.0659173254282,0.0125,0.189,0.2015,0.0659173254282,0.0125,0.189,0.2015,0.0659173254282
35120000,95.1075444763,146.576042158,69.3732956357,0.758,0.18,0.55,0.014,0.168,0.182,0.0806636155606,0.014,0.168,0.182,0.0806636155606,0.014,0.168,0.182,0.0806636155606,0.014,0.168,0.182,0.0806636155606,0.014,0.168,0.182,0.0806636155606,0.014,0.168,0.182,0.0806636155606
35120000,95.1646139396,145.78934846,69.8522466794,0.742,0.28,0.563,0.0215,0.275,0.2965,0.0892045454545,0.0215,0.275,0.2965,0.0892045454545,0.0215,0.275,0.2965,0.0892045454545,0.0215,0.275,0.2965,0.0892045454545,0.0215,0.275,0.2965,0.0892045454545,0.0215,0.275,0.2965,0.0892045454545
35120000,95.1815109735,145.699334567,69.9225991767,0.751,0.196,0.557,0.018,0.1895,0.2075,0.0958605072464,0.018,0.1895,0.2075,0.0958605072464,0.018,0.1895,0.2075,0.0958605072464,0.018,0.1895,0.2075,0.0958605072464,0.018,0.1895,0.2075,0.0958605072464,0.018,0.1895,0.2075,0.0958605072464
35120000,95.4093084378,148.062514255,69.0827055292,0.775,0.1825,0.593,0.0165,0.181,0.1975,0.0907091097308,0.0165,0.1775,0.194,0.093685300207,0.0165,0.1775,0.194,0.093685300207,0.0165,0.1775,0.194,0.093685300207,0.0165,0.1775,0.194,0.093685300207,0.0165,0.1775,0.194,0.093685300207
35120000,95.6824153501,147.278874464,69.884185793,0.7595,0.19,0.5675,0.02,0.188,0.208,0.106499094203,0.02,0.188,0.208,0.106499094203,0.02,0.188,0.208,0.106499094203,0.02,0.188,0.208,0.106499094203,0.02,0.188,0.208,0.106499094203,0.02,0.188,0.208,0.106499094203
35120000,95.8021936968,148.210430831,69.5980751295,0.76,0.1855,0.5745,0.017,0.1765,0.1935,0.0944531845919,0.017,0.1765,0.1935,0.0944531845919,0.017,0.1765,0.1935,0.0944531845919,0.017,0.1765,0.1935,0.0944531845919,0.017,0.1765,0.1935,0.0944531845919,0.017,0.1765,0.1935,0.0944531845919
35120000,95.986573172,148.981656938,69.489031289,0.7355,0.198,0.5385,0.0265,0.1885,0.215,0.141138069358,0.0265,0.1885,0.215,0.141138069358,0.0265,0.1885,0.215,0.141138069358,0.0265,0.1885,0.215,0.141138069358,0.0265,0.1885,0.215,0.141138069358,0.0265,0.1885,0.215,0.141138069358
35120000,96.213741726,148.680255363,69.9804849076,0.764,0.1945,0.579,0.0125,0.193,0.2055,0.0656199677939,0.0125,0.193,0.2055,0.0656199677939,0.0125,0.193,0.2055,0.0656199677939,0.0125,0.193,0.2055,0.0656199677939,0.0125,0.193,0.2055,0.0656199677939,0.0125,0.193,0.2055,0.0656199677939
35120000,97.5907469779,150.10052826,71.3358563368,0.7565,0.175,0.585,0.01,0.172,0.182,0.0579004329004,0.01,0.172,0.182,0.0579004329004,0.01,0.172,0.182,0.0579004329004,0.01,0.172,0.182,0.0579004329004,0.01,0.172,0.182,0.0579004329004,0.01,0.172,0.182,0.0579004329004
35120000,97.7093381528,149.823272831,71.6523708138,0.731,0.189,0.543,0.0175,0.179,0.1965,0.0980562689122,0.0175,0.179,0.1965,0.0980562689122,0.0175,0.179,0.1965,0.0980562689122,0.0175,0.179,0.1965,0.0980562689122,0.0175,0.179,0.1965,0.0980562689122,0.0175,0.179,0.1965,0.0980562689122
35120000,97.9383289668,149.848890762,71.9830480691,0.7465,0.1825,0.5625,0.008,0.1815,0.1895,0.0441329051383,0.008,0.1815,0.1895,0.0441329051383,0.008,0.1815,0.1895,0.0441329051383,0.008,0.1815,0.1895,0.0441329051383,0.008,0.1815,0.1895,0.0441329051383,0.008,0.1815,0.1895,0.0441329051383
35120000,99.1339627073,150.174075204,73.6139064589,0.74,0.1805,0.5565,0.02,0.1635,0.1835,0.12356255015,0.02,0.1635,0.1835,0.12356255015,0.02,0.1635,0.1835,0.12356255015,0.02,0.1635,0.1835,0.12356255015,0.02,0.1635,0.1835,0.12356255015,0.02,0.1635,0.1835,0.12356255015
35200000,84.8771919422,129.945132845,62.3432214907,0.6555,0.198,0.483,0.017,0.183,0.2,0.0947564935065,0.017,0.183,0.2,0.0947564935065,0.017,0.183,0.2,0.0947564935065,0.017,0.183,0.2,0.0947564935065,0.017,0.183,0.2,0.0947564935065,0.017,0.183,0.2,0.0947564935065
35200000,88.7119453551,139.099287173,63.5182744464,0.8105,0.202,0.613,0.01,0.2015,0.2115,0.0495443143813,0.01,0.2015,0.2115,0.0495443143813,0.01,0.2015,0.2115,0.0495443143813,0.01,0.2015,0.2115,0.0495443143813,0.01,0.2015,0.2115,0.0495443143813,0.01,0.2015,0.2115,0.0495443143813
35200000,88.9894615275,138.227999041,64.3701927707,0.791,0.1965,0.593,0.0175,0.192,0.2095,0.0906702898551,0.0175,0.192,0.2095,0.0906702898551,0.0175,0.192,0.2095,0.0906702898551,0.0175,0.192,0.2095,0.0906702898551,0.0175,0.192,0.2095,0.0906702898551,0.0175,0.192,0.2095,0.0906702898551
35200000,91.2726575105,141.075143343,66.3714145942,0.7835,0.205,0.58,0.025,0.1915,0.2165,0.131912815445,0.025,0.1915,0.2165,0.131912815445,0.025,0.1915,0.2165,0.131912815445,0.025,0.1915,0.2165,0.131912815445,0.025,0.1915,0.2165,0.131912815445,0.025,0.1915,0.2165,0.131912815445
35200000,91.5103865526,141.44849099,66.5413343337,0.76,0.2,0.552,0.016,0.176,0.192,0.0909090909091,0.016,0.176,0.192,0.0909090909091,0.016,0.176,0.192,0.0909090909091,0.016,0.168,0.184,0.0952380952381,0.016,0.168,0.184,0.0952380952381,0.016,0.168,0.184,0.0952380952381
35200000,92.8025400562,143.385942863,67.5108386527,0.7585,0.186,0.5625,0.025,0.1695,0.1945,0.158186737223,0.025,0.1695,0.1945,0.158186737223,0.025,0.1695,0.1945,0.158186737223,0.025,0.1695,0.1945,0.158186737223,0.025,0.1695,0.1945,0.158186737223,0.025,0.1695,0.1945,0.158186737223
35200000,92.822969076,142.217861335,68.1255229463,0.7545,0.2005,0.5565,0.0235,0.191,0.2145,0.12145639234,0.0235,0.191,0.2145,0.12145639234,0.0155,0.191,0.2065,0.0814563923395,0.0155,0.191,0.2065,0.0814563923395,0.0155,0.19,0.2055,0.081929877188,0.0155,0.19,0.2055,0.081929877188
35200000,92.8388653845,141.553969375,68.481313389,0.7195,0.2005,0.522,0.015,0.1935,0.2085,0.0779528985507,0.015,0.1935,0.2085,0.0779528985507,0.015,0.1935,0.2085,0.0779528985507,0.0145,0.1935,0.208,0.0753487318841,0.0145,0.1935,0.208,0.0753487318841,0.0145,0.1935,0.208,0.0753487318841
35200000,92.9263799605,145.656794151,66.5611728652,0.811,0.189,0.6105,0.0145,0.1685,0.183,0.0874224221621,0.0145,0.1685,0.183,0.0874224221621,0.0145,0.1685,0.183,0.0874224221621,0.0145,0.1685,0.183,0.0874224221621,0.0145,0.1685,0.183,0.0874224221621,0.0145,0.1685,0.183,0.0874224221621
35200000,93.5513469027,144.536922008,68.0585593502,0.7585,0.196,0.5565,0.0225,0.1955,0.218,0.113325858924,0.0225,0.1955,0.218,0.113325858924,0.0225,0.1955,0.218,0.113325858924,0.0225,0.1955,0.218,0.113325858924,0.0225,0.1955,0.218,0.113325858924,0.0225,0.1955,0.218,0.113325858924
35200000,93.5857186494,144.638278726,68.0594386111,0.7845,0.218,0.59,0.0135,0.199,0.2125,0.0729031385281,0.0135,0.199,0.2125,0.0729031385281,0.0135,0.199,0.2125,0.0729031385281,0.0135,0.199,0.2125,0.0729031385281,0.0135,0.199,0.2125,0.0729031385281,0.0135,0.199,0.2125,0.0729031385281
35200000,93.851747305,144.33515319,68.6100443624,0.7635,0.201,0.5655,0.014,0.189,0.203,0.0747694334651,0.014,0.189,0.203,0.0747694334651,0.014,0.189,0.203,0.0747694334651,0.014,0.189,0.203,0.0747694334651,0.014,0.189,0.203,0.0747694334651,0.014,0.189,0.203,0.0747694334651
35200000,94.068501896,144.783884512,68.7108105881,0.762,0.1945,0.574,0.0105,0.1865,0.197,0.0574945887446,0.0105,0.1865,0.197,0.0574945887446,0.0105,0.1865,0.197,0.0574945887446,0.0105,0.1865,0.197,0.0574945887446,0.0105,0.1865,0.197,0.0574945887446,0.0105,0.1865,0.197,0.0574945887446
35200000,94.1053101215,144.279458187,69.0182360887,0.776,0.196,0.5825,0.016,0.194,0.21,0.0826777389277,0.016,0.194,0.21,0.0826777389277,0.016,0.194,0.21,0.0826777389277,0.016,0.194,0.21,0.0826777389277,0.016,0.194,0.21,0.0826777389277,0.016,0.194,0.21,0.0826777389277
35200000,94.4525965032,143.660462254,69.8486636278,0.747,0.2035,0.548,0.018,0.189,0.207,0.0989109531773,0.018,0.189,0.207,0.0989109531773,0.018,0.189,0.207,0.0989109531773,0.018,0.189,0.207,0.0989109531773,0.018,0.189,0.207,0.0989109531773,0.018,0.189,0.207,0.0989109531773
35200000,94.8350096082,144.316403295,70.094312765,0.7535,0.193,0.555,0.016,0.1915,0.2075,0.0870046620047,0.016,0.1915,0.2075,0.0870046620047,0.016,0.1915,0.2075,0.0870046620047,0.016,0.1915,0.2075,0.0870046620047,0.016,0.1915,0.2075,0.0870046620047,0.016,0.1915,0.2075,0.0870046620047
35200000,94.9520554566,146.241958111,69.3071041292,0.786,0.1955,0.585,0.0125,0.19,0.2025,0.0666908544354,0.0125,0.19,0.2025,0.0666908544354,0.0125,0.19,0.2025,0.0666908544354,0.0125,0.19,0.2025,0.0666908544354,0.0125,0.19,0.2025,0.0666908544354,0.0125,0.19,0.2025,0.0666908544354
35200000,95.0953787361,146.319141237,69.4834974855,0.765,0.1975,0.5585,0.018,0.186,0.204,0.0960869565217,0.018,0.186,0.204,0.0960869565217,0.018,0.186,0.204,0.0960869565217,0.018,0.186,0.204,0.0960869565217,0.018,0.186,0.204,0.0960869565217,0.018,0.186,0.204,0.0960869565217
35200000,95.3708265143,146.228909653,69.941784945,0.7515,0.199,0.552,0.0225,0.193,0.2155,0.116174242424,0.022,0.193,0.215,0.113570075758,0.022,0.193,0.215,0.113570075758,0.022,0.193,0.215,0.113570075758,0.022,0.193,0.215,0.113570075758,0.022,0.193,0.215,0.113570075758
35200000,95.677232687,146.554615082,70.2385414896,0.762,0.2025,0.562,0.0115,0.194,0.2055,0.0599163517642,0.0115,0.194,0.2055,0.0599163517642,0.0115,0.194,0.2055,0.0599163517642,0.0115,0.194,0.2055,0.0599163517642,0.0115,0.194,0.2055,0.0599163517642,0.0115,0.194,0.2055,0.0599163517642
35200000,95.7680577589,146.48323551,70.4104688832,0.7965,0.1935,0.5955,0.008,0.187,0.195,0.0428636128364,0.008,0.187,0.195,0.0428636128364,0.008,0.187,0.195,0.0428636128364,0.008,0.187,0.195,0.0428636128364,0.008,0.187,0.195,0.0428636128364,0.008,0.187,0.195,0.0428636128364
35200000,96.0692665695,146.420171137,70.8938142857,0.7585,0.198,0.555,0.013,0.1745,0.1875,0.072149122807,0.013,0.1745,0.1875,0.072149122807,0.013,0.1745,0.1875,0.072149122807,0.013,0.1745,0.1875,0.072149122807,0.013,0.1745,0.1875,0.072149122807,0.013,0.1725,0.1855,0.0729824561404
35200000,96.2248365931,147.615096359,70.5297067102,0.7395,0.202,0.5425,0.009,0.2,0.209,0.0455351170569,0.009,0.2,0.209,0.0455351170569,0.009,0.2,0.209,0.0455351170569,0.009,0.2,0.209,0.0455351170569,0.009,0.2,0.209,0.0455351170569,0.009,0.2,0.209,0.0455351170569
35200000,96.3883243025,146.066662867,71.5491550201,0.7355,0.1915,0.5525,0.019,0.19,0.209,0.0995480968307,0.019,0.19,0.209,0.0995480968307,0.019,0.19,0.209,0.0995480968307,0.019,0.19,0.209,0.0995480968307,0.019,0.19,0.209,0.0995480968307,0.019,0.19,0.209,0.0995480968307
35200000,97.0572499058,148.711179251,71.2302852332,0.746,0.1935,0.55,0.016,0.1925,0.2085,0.0832382246377,0.016,0.1925,0.2085,0.0832382246377,0.016,0.1925,0.2085,0.0832382246377,0.016,0.1925,0.2085,0.0832382246377,0.016,0.1925,0.2085,0.0832382246377,0.016,0.1925,0.2085,0.0832382246377
35200000,97.1383778677,147.208927395,72.1031031042,0.742,0.2015,0.537,0.0115,0.1955,0.207,0.0597172619048,0.0115,0.1955,0.207,0.0597172619048,0.0115,0.1955,0.207,0.0597172619048,0.0115,0.1955,0.207,0.0597172619048,0.0105,0.1955,0.206,0.0547172619048,0.0105,0.1955,0.206,0.0547172619048
35200000,97.4274902621,149.123689871,71.5793904578,0.752,0.2775,0.5195,0.012,0.2775,0.2895,0.0529213764828,0.012,0.2775,0.2895,0.0529213764828,0.012,0.2775,0.2895,0.0529213764828,0.012,0.2775,0.2895,0.0529213764828,0.012,0.2775,0.2895,0.0529213764828,0.012,0.2775,0.2895,0.0529213764828
35200000,97.6150055905,148.625362665,72.1098270533,0.7525,0.1995,0.5545,0.013,0.195,0.208,0.0665105908584,0.013,0.195,0.208,0.0665105908584,0.013,0.195,0.208,0.0665105908584,0.013,0.195,0.208,0.0665105908584,0.013,0.195,0.208,0.0665105908584,0.013,0.195,0.208,0.0665105908584
35200000,97.9216649601,148.370925389,72.6970347456,0.749,0.197,0.553,0.024,0.191,0.215,0.135485023732,0.024,0.183,0.207,0.137087587835,0.024,0.183,0.207,0.137087587835,0.024,0.183,0.207,0.137087587835,0.023,0.183,0.206,0.13014314339,0.023,0.183,0.206,0.13014314339
35200000,98.3242487399,149.495274165,72.7387360272,0.723,0.202,0.529,0.027,0.1955,0.2225,0.140260590858,0.027,0.1955,0.2225,0.140260590858,0.027,0.1955,0.2225,0.140260590858,0.027,0.1955,0.2225,0.140260590858,0.027,0.1955,0.2225,0.140260590858,0.027,0.1955,0.2225,0.140260590858
35200000,98.5368007742,143.305053759,76.1526742817,0.686,0.199,0.4885,0.0225,0.199,0.2215,0.114693732194,0.0225,0.199,0.2215,0.114693732194,0.0225,0.199,0.2215,0.114693732194,0.0225,0.199,0.2215,0.114693732194,0.0225,0.199,0.2215,0.114693732194,0.0225,0.199,0.2215,0.114693732194
35200000,98.5914489017,149.473081934,73.1506323856,0.7155,0.194,0.524,0.0105,0.1855,0.196,0.0557662220026,0.0105,0.1855,0.196,0.0557662220026,0.01,0.1855,0.1955,0.0532662220026,0.01,0.1855,0.1955,0.0532662220026,0.01,0.1855,0.1955,0.0532662220026,0.01,0.1855,0.1955,0.0532662220026
35200000,98.6672923626,148.87105484,73.5654111238,0.747,0.192,0.5495,0.0125,0.1895,0.202,0.0665172101449,0.0125,0.1895,0.202,0.0665172101449,0.0125,0.1895,0.202,0.0665172101449,0.0125,0.1895,0.202,0.0665172101449,0.0125,0.1835,0.196,0.0678808465086,0.0125,0.1835,0.196,0.0678808465086
35200000,98.8039637389,149.890370567,73.2607603249,0.718,0.195,0.5265,0.0165,0.19,0.2065,0.087962962963,0.0165,0.19,0.2065,0.087962962963,0.0165,0.19,0.2065,0.087962962963,0.0165,0.19,0.2065,0.087962962963,0.0165,0.19,0.2065,0.087962962963,0.0165,0.19,0.2065,0.087962962963
35200000,99.4448846799,149.127011721,74.6038211591,0.7125,0.197,0.5145,0.0155,0.187,0.2025,0.0827775032938,0.0155,0.187,0.2025,0.0827775032938,0.0155,0.187,0.2025,0.0827775032938,0.0155,0.187,0.2025,0.0827775032938,0.01,0.187,0.197,0.053225872859,0.01,0.187,0.197,0.053225872859
