ID,mbp,sbp,dbp,cp,sut,dt,dt10,st10,st10_p_dt10,st10_d_dt10,dt25,st25,st25_p_dt25,st25_d_dt25,dt33,st33,st33_p_dt33,st33_d_dt33,dt50,st50,st50_p_dt50,st50_d_dt50,dt66,st66,st66_p_dt66,st66_d_dt66,dt75,st75,st75_p_dt75,st75_d_dt75
34040000,93.5099529349,129.729395534,75.4002316352,0.741,0.287,0.5385,0.01,0.28,0.29,0.0427148033126,0.01,0.28,0.29,0.0427148033126,0.01,0.28,0.29,0.0427148033126,0.01,0.28,0.29,0.0427148033126,0.01,0.28,0.29,0.0427148033126,0.01,0.28,0.29,0.0427148033126
34040000,94.4976670864,131.854260537,75.819370361,0.7525,0.2085,0.543,0.038,0.2065,0.2445,0.179712384536,0.038,0.2065,0.2445,0.179712384536,0.018,0.2065,0.2245,0.0835585383819,0.018,0.2065,0.2245,0.0835585383819,0.018,0.2065,0.2245,0.0835585383819,0.018,0.2065,0.2245,0.0835585383819
34040000,94.8824029762,131.578616248,76.5342963404,0.7515,0.2,0.4705,0.029,0.181,0.21,0.16244320796,0.029,0.181,0.21,0.16244320796,0.029,0.181,0.21,0.16244320796,0.029,0.181,0.21,0.16244320796,0.029,0.181,0.21,0.16244320796,0.029,0.181,0.21,0.16244320796
34040000,95.8431427205,134.288910098,76.620259032,0.754,0.207,0.4805,0.0295,0.202,0.2315,0.144928929766,0.0295,0.202,0.2315,0.144928929766,0.0295,0.202,0.2315,0.144928929766,0.0295,0.202,0.2315,0.144928929766,0.0295,0.202,0.2315,0.144928929766,0.0295,0.202,0.2315,0.144928929766
34040000,96.7425306351,135.982593565,77.1224991699,0.736,0.2185,0.5175,0.0155,0.213,0.2285,0.0758680555556,0.0155,0.213,0.2285,0.0758680555556,0.0155,0.213,0.2285,0.0758680555556,0.0155,0.213,0.2285,0.0758680555556,0.0155,0.213,0.2285,0.0758680555556,0.0155,0.213,0.2285,0.0758680555556
34040000,97.2424609158,135.382348873,78.1725169373,0.7365,0.2185,0.5365,0.0185,0.216,0.2345,0.0849908913065,0.0185,0.216,0.2345,0.0849908913065,0.0185,0.216,0.2345,0.0849908913065,0.0185,0.216,0.2345,0.0849908913065,0.0185,0.216,0.2345,0.0849908913065,0.0185,0.216,0.2345,0.0849908913065
34040000,97.5826854222,135.646118513,78.5509688767,0.752,0.2335,0.5555,0.012,0.218,0.23,0.0615705452283,0.012,0.218,0.23,0.0615705452283,0.012,0.218,0.23,0.0615705452283,0.012,0.218,0.23,0.0615705452283,0.012,0.218,0.23,0.0615705452283,0.012,0.218,0.23,0.0615705452283
34040000,97.7507003103,137.093317792,78.0793915696,0.732,0.276,0.472,0.02,0.276,0.296,0.0885509838998,0.02,0.276,0.296,0.0885509838998,0.02,0.276,0.296,0.0885509838998,0.02,0.276,0.296,0.0885509838998,0.02,0.276,0.296,0.0885509838998,0.02,0.276,0.296,0.0885509838998
34040000,98.0174648052,137.496849793,78.2777723115,0.7565,0.261,0.539,0.0155,0.2545,0.27,0.063916488604,0.0155,0.2545,0.27,0.063916488604,0.0155,0.2545,0.27,0.063916488604,0.0155,0.2545,0.27,0.063916488604,0.0155,0.2545,0.27,0.063916488604,0.0155,0.2545,0.27,0.063916488604
34040000,98.117681456,138.481437461,77.9358034533,0.7565,0.2115,0.561,0.014,0.2115,0.2255,0.066363960114,0.014,0.2115,0.2255,0.066363960114,0.014,0.2115,0.2255,0.066363960114,0.014,0.2115,0.2255,0.066363960114,0.014,0.2115,0.2255,0.066363960114,0.014,0.2115,0.2255,0.066363960114
34040000,98.4098830259,138.482457991,78.3735955433,0.766,0.3295,0.5045,0.021,0.3195,0.3405,0.0623092185592,0.021,0.3195,0.3405,0.0623092185592,0.021,0.3195,0.3405,0.0623092185592,0.021,0.3195,0.3405,0.0623092185592,0.021,0.3195,0.3405,0.0623092185592,0.021,0.3195,0.3405,0.0623092185592
34040000,98.6545421851,139.018250504,78.4726880258,0.765,0.2025,0.556,0.0165,0.1995,0.216,0.0828386287625,0.0165,0.1995,0.216,0.0828386287625,0.0165,0.1995,0.216,0.0828386287625,0.0165,0.1995,0.216,0.0828386287625,0.0165,0.1995,0.216,0.0828386287625,0.0165,0.1995,0.216,0.0828386287625
34040000,98.773414698,139.000403403,78.6599203456,0.7325,0.207,0.5185,0.0135,0.2015,0.215,0.0665078950424,0.0135,0.2015,0.215,0.0665078950424,0.0135,0.2015,0.215,0.0665078950424,0.0135,0.2015,0.215,0.0665078950424,0.0135,0.2015,0.215,0.0665078950424,0.0135,0.2015,0.215,0.0665078950424
34040000,98.8694802231,138.225760706,79.1913399817,0.7395,0.1935,0.5405,0.012,0.1755,0.1875,0.0727597840756,0.012,0.1755,0.1875,0.0727597840756,0.012,0.1755,0.1875,0.0727597840756,0.012,0.1755,0.1875,0.0727597840756,0.012,0.1755,0.1875,0.0727597840756,0.012,0.1755,0.1875,0.0727597840756
34040000,99.0642665253,139.713564896,78.7396173401,0.741,0.357,0.526,0.01,0.3555,0.3655,0.038437049062,0.01,0.3555,0.3655,0.038437049062,0.01,0.3555,0.3655,0.038437049062,0.01,0.3555,0.3655,0.038437049062,0.01,0.3555,0.3655,0.038437049062,0.01,0.3555,0.3655,0.038437049062
34040000,99.3588606035,139.868944142,79.1038188343,0.7595,0.176,0.548,0.008,0.1755,0.1835,0.0464199561404,0.008,0.1755,0.1835,0.0464199561404,0.008,0.1755,0.1835,0.0464199561404,0.008,0.1755,0.1835,0.0464199561404,0.008,0.1755,0.1835,0.0464199561404,0.008,0.1755,0.1835,0.0464199561404
34040000,99.3719375989,139.719528343,79.198142227,0.7375,0.205,0.5305,0.0105,0.1905,0.201,0.054439484127,0.0105,0.1905,0.201,0.054439484127,0.0105,0.1905,0.201,0.054439484127,0.0105,0.1905,0.201,0.054439484127,0.0105,0.1905,0.201,0.054439484127,0.0105,0.1905,0.201,0.054439484127
34040000,99.6197941269,140.653386744,79.1029978182,0.752,0.215,0.464,0.0275,0.203,0.2305,0.13359775641,0.0275,0.203,0.2305,0.13359775641,0.0275,0.203,0.2305,0.13359775641,0.0275,0.203,0.2305,0.13359775641,0.0275,0.203,0.2305,0.13359775641,0.0275,0.203,0.2305,0.13359775641
34040000,100.003884975,140.736749534,79.6374526947,0.76,0.205,0.5655,0.0235,0.1965,0.22,0.120641025641,0.0235,0.1965,0.22,0.120641025641,0.0235,0.1965,0.22,0.120641025641,0.0235,0.1965,0.22,0.120641025641,0.0235,0.1965,0.22,0.120641025641,0.0235,0.1965,0.22,0.120641025641
34040000,100.635154982,142.125867652,79.8897986468,0.745,0.2095,0.535,0.0125,0.1935,0.206,0.0663098375055,0.0125,0.1935,0.206,0.0663098375055,0.0125,0.1935,0.206,0.0663098375055,0.0125,0.1935,0.206,0.0663098375055,0.0125,0.1935,0.206,0.0663098375055,0.0125,0.1935,0.206,0.0663098375055
34040000,100.892041823,141.651291781,80.512416844,0.7425,0.221,0.539,0.01,0.211,0.221,0.0451792635659,0.01,0.211,0.221,0.0451792635659,0.01,0.211,0.221,0.0451792635659,0.01,0.211,0.221,0.0451792635659,0.01,0.211,0.221,0.0451792635659,0.01,0.211,0.221,0.0451792635659
34040000,102.067367477,144.169510438,81.0162959965,0.763,0.184,0.568,0.017,0.1795,0.1965,0.0954179606625,0.017,0.1795,0.1965,0.0954179606625,0.017,0.1795,0.1965,0.0954179606625,0.017,0.1795,0.1965,0.0954179606625,0.017,0.1795,0.1965,0.0954179606625,0.017,0.1795,0.1965,0.0954179606625
34080000,91.262235257,104.34298858,84.7218585957,0.92,0.344,0.696,0.04,0.304,0.344,0.131578947368,0.04,0.304,0.344,0.131578947368,0.04,0.304,0.344,0.131578947368,0.04,0.304,0.344,0.131578947368,0.04,0.304,0.344,0.131578947368,0.04,0.304,0.344,0.131578947368
34120000,98.3798597199,140.865409657,77.1370847515,0.7555,0.2585,0.538,0.0165,0.253,0.2695,0.074301242236,0.0165,0.253,0.2695,0.074301242236,0.0165,0.253,0.2695,0.074301242236,0.0165,0.253,0.2695,0.074301242236,0.0165,0.253,0.2695,0.074301242236,0.0165,0.253,0.2695,0.074301242236
34120000,98.5009340056,138.98064729,78.2610773633,0.76,0.304,0.584,0.008,0.288,0.296,0.0277777777778,0.008,0.288,0.296,0.0277777777778,0.008,0.288,0.296,0.0277777777778,0.008,0.288,0.296,0.0277777777778,0.008,0.288,0.296,0.0277777777778,0.008,0.288,0.296,0.0277777777778
34120000,98.5313599107,132.414301534,81.5898890991,0.776,0.2,0.5735,0.0085,0.199,0.2075,0.0427083333333,0.0085,0.199,0.2075,0.0427083333333,0.0085,0.199,0.2075,0.0427083333333,0.0085,0.199,0.2075,0.0427083333333,0.0085,0.199,0.2075,0.0427083333333,0.0085,0.1985,0.207,0.0428125
34120000,99.6021175396,133.775642439,82.5153550898,0.7665,0.204,0.5655,0.011,0.2035,0.2145,0.0540384615385,0.011,0.2035,0.2145,0.0540384615385,0.011,0.2035,0.2145,0.0540384615385,0.011,0.2035,0.2145,0.0540384615385,0.011,0.2035,0.2145,0.0540384615385,0.011,0.2035,0.2145,0.0540384615385
34120000,99.887492826,135.57816516,82.042156659,0.771,0.2065,0.564,0.0275,0.1965,0.224,0.139920948617,0.0275,0.1965,0.224,0.139920948617,0.0275,0.1965,0.224,0.139920948617,0.0275,0.1965,0.224,0.139920948617,0.0275,0.1965,0.224,0.139920948617,0.0275,0.1965,0.224,0.139920948617
34120000,100.987096943,143.249963421,79.8556637038,0.79,0.1785,0.5375,0.0175,0.1535,0.171,0.113494107857,0.0175,0.1535,0.171,0.113494107857,0.0175,0.1535,0.171,0.113494107857,0.0175,0.1535,0.171,0.113494107857,0.0175,0.1535,0.171,0.113494107857,0.0175,0.1535,0.171,0.113494107857
34120000,101.966325889,137.374007817,84.2624849247,0.7705,0.2075,0.562,0.015,0.2045,0.2195,0.0735657051282,0.015,0.2045,0.2195,0.0735657051282,0.015,0.2045,0.2195,0.0735657051282,0.015,0.2045,0.2195,0.0735657051282,0.015,0.2045,0.2195,0.0735657051282,0.015,0.2045,0.2195,0.0735657051282
34120000,101.988655814,143.687369285,81.1392990781,0.7425,0.1905,0.551,0.022,0.1785,0.2005,0.128913690476,0.022,0.1785,0.2005,0.128913690476,0.022,0.1785,0.2005,0.128913690476,0.022,0.1785,0.2005,0.128913690476,0.022,0.1785,0.2005,0.128913690476,0.022,0.1785,0.2005,0.128913690476
34120000,102.081370274,144.565801976,80.8391544229,0.768,0.195,0.5245,0.031,0.1905,0.2215,0.162158267457,0.031,0.1905,0.2215,0.162158267457,0.031,0.1905,0.2215,0.162158267457,0.031,0.1905,0.2215,0.162158267457,0.031,0.1905,0.2215,0.162158267457,0.031,0.1905,0.2215,0.162158267457
34120000,102.214982105,143.822737169,81.4111045732,0.7305,0.245,0.524,0.014,0.234,0.248,0.0626984126984,0.014,0.234,0.248,0.0626984126984,0.014,0.234,0.248,0.0626984126984,0.014,0.234,0.248,0.0626984126984,0.014,0.234,0.248,0.0626984126984,0.014,0.23,0.244,0.0631313131313
34120000,102.230705912,133.87692698,86.4075953783,0.7625,0.199,0.5565,0.008,0.1935,0.2015,0.0413712374582,0.008,0.1935,0.2015,0.0413712374582,0.008,0.1935,0.2015,0.0413712374582,0.008,0.1935,0.2015,0.0413712374582,0.008,0.1935,0.2015,0.0413712374582,0.008,0.1935,0.2015,0.0413712374582
34120000,102.47566305,145.32533816,81.0508254947,0.763,0.267,0.525,0.0145,0.261,0.2755,0.0596762710363,0.0145,0.261,0.2755,0.0596762710363,0.0145,0.261,0.2755,0.0596762710363,0.0145,0.261,0.2755,0.0596762710363,0.0145,0.261,0.2755,0.0596762710363,0.0145,0.261,0.2755,0.0596762710363
34120000,103.133556031,139.2667156,85.0669762462,0.767,0.2035,0.5655,0.022,0.1945,0.2165,0.117295150502,0.022,0.1945,0.2165,0.117295150502,0.022,0.1945,0.2165,0.117295150502,0.022,0.1945,0.2165,0.117295150502,0.022,0.1945,0.2165,0.117295150502,0.022,0.1945,0.2165,0.117295150502
34120000,103.174779136,146.057220873,81.7335582678,0.749,0.2465,0.5215,0.031,0.2445,0.2755,0.124755067568,0.031,0.2445,0.2755,0.124755067568,0.031,0.2445,0.2755,0.124755067568,0.031,0.2445,0.2755,0.124755067568,0.031,0.2445,0.2755,0.124755067568,0.031,0.2445,0.2755,0.124755067568
34120000,103.456090607,135.987420933,87.1904254432,0.7465,0.1945,0.5505,0.029,0.1815,0.2105,0.161684782609,0.029,0.1815,0.2105,0.161684782609,0.029,0.1815,0.2105,0.161684782609,0.029,0.1815,0.2105,0.161684782609,0.029,0.1815,0.2105,0.161684782609,0.029,0.1815,0.2105,0.161684782609
34120000,103.695961917,147.831841591,81.6280220808,0.8065,0.247,0.5475,0.0105,0.2295,0.24,0.0477462805298,0.0105,0.2295,0.24,0.0477462805298,0.0105,0.2295,0.24,0.0477462805298,0.0105,0.2295,0.24,0.0477462805298,0.0105,0.2295,0.24,0.0477462805298,0.0105,0.2295,0.24,0.0477462805298
34120000,103.701315566,138.492680716,86.3056329907,0.771,0.205,0.565,0.016,0.1895,0.2055,0.0849020092227,0.016,0.1895,0.2055,0.0849020092227,0.016,0.1895,0.2055,0.0849020092227,0.016,0.1895,0.2055,0.0849020092227,0.016,0.1895,0.2055,0.0849020092227,0.016,0.1895,0.2055,0.0849020092227
34120000,103.763834564,135.349432393,87.9710356499,0.726,0.202,0.526,0.014,0.193,0.207,0.0729410901837,0.014,0.193,0.207,0.0729410901837,0.014,0.193,0.207,0.0729410901837,0.014,0.193,0.207,0.0729410901837,0.014,0.193,0.207,0.0729410901837,0.014,0.193,0.207,0.0729410901837
34120000,104.082405029,146.557951504,82.8446317913,0.7555,0.231,0.5575,0.0195,0.217,0.2365,0.089703525641,0.0195,0.217,0.2365,0.089703525641,0.0195,0.217,0.2365,0.089703525641,0.0195,0.217,0.2365,0.089703525641,0.0195,0.217,0.2365,0.089703525641,0.0195,0.217,0.2365,0.089703525641
34120000,104.196471164,147.218241766,82.6855858628,0.7765,0.2955,0.5775,0.013,0.291,0.304,0.0528513579345,0.013,0.291,0.304,0.0528513579345,0.013,0.291,0.304,0.0528513579345,0.013,0.291,0.304,0.0528513579345,0.013,0.291,0.304,0.0528513579345,0.013,0.291,0.304,0.0528513579345
34120000,104.497908395,139.344611594,87.0745567949,0.7535,0.216,0.5535,0.013,0.216,0.229,0.0611263736264,0.013,0.216,0.229,0.0611263736264,0.013,0.216,0.229,0.0611263736264,0.013,0.216,0.229,0.0611263736264,0.013,0.216,0.229,0.0611263736264,0.013,0.216,0.229,0.0611263736264
34120000,105.988239787,142.622077141,87.6713211104,0.771,0.205,0.563,0.022,0.196,0.218,0.111501068376,0.022,0.196,0.218,0.111501068376,0.022,0.196,0.218,0.111501068376,0.022,0.196,0.218,0.111501068376,0.022,0.196,0.218,0.111501068376,0.022,0.196,0.218,0.111501068376
34120000,106.158385303,141.281411823,88.5968720423,0.749,0.201,0.547,0.009,0.195,0.204,0.0467349498328,0.009,0.195,0.204,0.0467349498328,0.009,0.195,0.204,0.0467349498328,0.009,0.195,0.204,0.0467349498328,0.009,0.195,0.204,0.0467349498328,0.009,0.195,0.204,0.0467349498328
34120000,106.722807058,140.476065003,89.8461780855,0.753,0.2015,0.5525,0.0095,0.2005,0.21,0.0477926421405,0.0095,0.2005,0.21,0.0477926421405,0.0095,0.2005,0.21,0.0477926421405,0.0095,0.2005,0.21,0.0477926421405,0.0095,0.2005,0.21,0.0477926421405,0.0095,0.2005,0.21,0.0477926421405
34120000,106.998199124,142.153171153,89.4207131095,0.756,0.201,0.5515,0.012,0.2,0.212,0.0600320512821,0.012,0.2,0.212,0.0600320512821,0.012,0.2,0.212,0.0600320512821,0.012,0.2,0.212,0.0600320512821,0.012,0.2,0.212,0.0600320512821,0.012,0.2,0.212,0.0600320512821
34120000,107.750534793,137.142553293,93.0545255433,0.7515,0.198,0.5505,0.01,0.1955,0.2055,0.0523567193676,0.01,0.1955,0.2055,0.0523567193676,0.01,0.1955,0.2055,0.0523567193676,0.01,0.1955,0.2055,0.0523567193676,0.01,0.1955,0.2055,0.0523567193676,0.01,0.1955,0.2055,0.0523567193676
34120000,109.068290404,144.649545545,91.2776628334,0.744,0.1955,0.5475,0.019,0.1855,0.2045,0.101685606061,0.019,0.1855,0.2045,0.101685606061,0.019,0.1855,0.2045,0.101685606061,0.019,0.1855,0.2045,0.101685606061,0.019,0.1855,0.2045,0.101685606061,0.019,0.1855,0.2045,0.101685606061
34120000,109.973230884,145.496038266,92.2118271936,0.722,0.198,0.5225,0.0085,0.1915,0.2,0.0442992424242,0.0085,0.1915,0.2,0.0442992424242,0.0085,0.1915,0.2,0.0442992424242,0.0085,0.1915,0.2,0.0442992424242,0.0085,0.1915,0.2,0.0442992424242,0.0085,0.1915,0.2,0.0442992424242
34160000,91.6774264787,134.963370807,70.0344543143,0.782,0.243,0.577,0.012,0.243,0.255,0.0558892276423,0.012,0.243,0.255,0.0558892276423,0.012,0.243,0.255,0.0558892276423,0.012,0.243,0.255,0.0558892276423,0.012,0.243,0.255,0.0558892276423,0.012,0.243,0.255,0.0558892276423
34160000,91.8613379664,125.033390278,75.2753118107,0.7405,0.199,0.5405,0.015,0.194,0.209,0.077509057971,0.015,0.194,0.209,0.077509057971,0.015,0.194,0.209,0.077509057971,0.015,0.194,0.209,0.077509057971,0.015,0.194,0.209,0.077509057971,0.015,0.194,0.209,0.077509057971
34160000,95.2210802127,137.618808027,74.0222163057,0.7385,0.198,0.5435,0.0315,0.179,0.2105,0.179047619048,0.0315,0.179,0.2105,0.179047619048,0.0315,0.179,0.2105,0.179047619048,0.0315,0.179,0.2105,0.179047619048,0.0315,0.179,0.2105,0.179047619048,0.0315,0.179,0.2105,0.179047619048
34160000,95.4276929251,123.932293714,81.1753925307,0.7185,0.2025,0.47,0.0165,0.2015,0.218,0.0819598110223,0.0165,0.2015,0.218,0.0819598110223,0.0165,0.2015,0.218,0.0819598110223,0.0165,0.2015,0.218,0.0819598110223,0.0165,0.2015,0.218,0.0819598110223,0.0165,0.2015,0.218,0.0819598110223
34160000,95.6825662974,139.452795164,73.7974518642,0.724,0.194,0.5335,0.011,0.179,0.19,0.0607660455487,0.011,0.179,0.19,0.0607660455487,0.011,0.179,0.19,0.0607660455487,0.011,0.179,0.19,0.0607660455487,0.011,0.179,0.19,0.0607660455487,0.011,0.179,0.19,0.0607660455487
34160000,98.1564525707,139.697201879,77.3860779165,0.676,0.2015,0.448,0.011,0.194,0.205,0.0566666666667,0.011,0.194,0.205,0.0566666666667,0.011,0.194,0.205,0.0566666666667,0.011,0.194,0.205,0.0566666666667,0.011,0.194,0.205,0.0566666666667,0.011,0.194,0.205,0.0566666666667
34160000,98.7362033303,143.561620929,76.323494531,0.6955,0.1945,0.358,0.0155,0.1945,0.21,0.0798244147157,0.0155,0.1945,0.21,0.0798244147157,0.0155,0.1945,0.21,0.0798244147157,0.0155,0.1945,0.21,0.0798244147157,0.0155,0.1945,0.21,0.0798244147157,0.0155,0.1945,0.21,0.0798244147157
34160000,98.8328266676,142.81085176,76.8438141214,0.672,0.197,0.456,0.016,0.179,0.195,0.104571078431,0.016,0.179,0.195,0.104571078431,0.016,0.179,0.195,0.104571078431,0.016,0.179,0.195,0.104571078431,0.016,0.179,0.195,0.104571078431,0.016,0.179,0.195,0.104571078431
34160000,99.6636473951,139.969680472,79.5106308567,0.7745,0.234,0.5715,0.0125,0.232,0.2445,0.057829017829,0.0125,0.232,0.2445,0.057829017829,0.0125,0.232,0.2445,0.057829017829,0.0125,0.232,0.2445,0.057829017829,0.0125,0.232,0.2445,0.057829017829,0.0125,0.232,0.2445,0.057829017829
34160000,101.420496068,142.439606772,80.9109407156,0.7785,0.1905,0.5555,0.009,0.188,0.197,0.0491032980178,0.009,0.188,0.197,0.0491032980178,0.009,0.188,0.197,0.0491032980178,0.009,0.188,0.197,0.0491032980178,0.009,0.188,0.197,0.0491032980178,0.009,0.188,0.197,0.0491032980178
34160000,104.551577868,149.927397235,81.863668185,0.7015,0.201,0.5045,0.022,0.179,0.201,0.119327651515,0.022,0.179,0.201,0.119327651515,0.022,0.179,0.201,0.119327651515,0.022,0.179,0.201,0.119327651515,0.022,0.179,0.201,0.119327651515,0.022,0.179,0.201,0.119327651515
34160000,105.334629381,150.374818861,82.8145346411,0.6885,0.191,0.5015,0.011,0.1825,0.1935,0.0590205627706,0.011,0.1825,0.1935,0.0590205627706,0.011,0.1825,0.1935,0.0590205627706,0.011,0.1825,0.1935,0.0590205627706,0.011,0.1825,0.1935,0.0590205627706,0.011,0.1825,0.1935,0.0590205627706
34160000,106.597827312,150.471901983,84.6607899763,0.676,0.235,0.467,0.0335,0.219,0.2525,0.169020798043,0.0335,0.219,0.2525,0.169020798043,0.0335,0.219,0.2525,0.169020798043,0.0335,0.219,0.2525,0.169020798043,0.0335,0.219,0.2525,0.169020798043,0.0335,0.219,0.2525,0.169020798043
34160000,107.949683007,149.343791191,87.2526289155,0.7325,0.2375,0.5175,0.0095,0.2285,0.238,0.0418886009781,0.0095,0.2285,0.238,0.0418886009781,0.0095,0.2285,0.238,0.0418886009781,0.0095,0.2285,0.238,0.0418886009781,0.0095,0.2285,0.238,0.0418886009781,0.0095,0.2285,0.238,0.0418886009781
34200000,90.7305024464,132.690902151,69.7503025942,0.734,0.21,0.529,0.0215,0.2015,0.223,0.111459385522,0.0215,0.2015,0.223,0.111459385522,0.0215,0.2015,0.223,0.111459385522,0.0215,0.2015,0.223,0.111459385522,0.0135,0.2015,0.215,0.0660048400673,0.0135,0.2015,0.215,0.0660048400673
34200000,90.7689267445,128.950464057,71.678158088,0.756,0.215,0.5475,0.0105,0.203,0.2135,0.0513994107744,0.0105,0.203,0.2135,0.0513994107744,0.0105,0.203,0.2135,0.0513994107744,0.0105,0.203,0.2135,0.0513994107744,0.0105,0.203,0.2135,0.0513994107744,0.0105,0.203,0.2135,0.0513994107744
34200000,92.4569041847,136.607605361,70.3815535963,0.824,0.2175,0.6065,0.013,0.2155,0.2285,0.0599917722763,0.013,0.2155,0.2285,0.0599917722763,0.013,0.2155,0.2285,0.0599917722763,0.013,0.2155,0.2285,0.0599917722763,0.013,0.2155,0.2285,0.0599917722763,0.013,0.2155,0.2285,0.0599917722763
34200000,93.2962803745,137.702922885,71.0929591193,0.8035,0.2265,0.5775,0.012,0.21,0.222,0.0596574721575,0.012,0.21,0.222,0.0596574721575,0.012,0.21,0.222,0.0596574721575,0.012,0.21,0.222,0.0596574721575,0.012,0.21,0.222,0.0596574721575,0.012,0.21,0.222,0.0596574721575
34200000,94.2519207198,138.287256157,72.2342530012,0.808,0.2205,0.59,0.0145,0.2055,0.22,0.0714914021164,0.0145,0.2055,0.22,0.0714914021164,0.0145,0.2055,0.22,0.0714914021164,0.0145,0.2055,0.22,0.0714914021164,0.0145,0.2055,0.22,0.0714914021164,0.0145,0.2055,0.22,0.0714914021164
34200000,94.3443932914,137.050692971,72.9912434517,0.789,0.2235,0.5715,0.009,0.2225,0.2315,0.0402379259519,0.009,0.2225,0.2315,0.0402379259519,0.009,0.2225,0.2315,0.0402379259519,0.009,0.2225,0.2315,0.0402379259519,0.009,0.2225,0.2315,0.0402379259519,0.009,0.2225,0.2315,0.0402379259519
34200000,94.7863316373,140.984980759,71.6870070765,0.8355,0.2185,0.6235,0.019,0.2115,0.2305,0.0901273148148,0.019,0.2115,0.2305,0.0901273148148,0.019,0.2115,0.2305,0.0901273148148,0.019,0.2115,0.2305,0.0901273148148,0.019,0.2115,0.2305,0.0901273148148,0.019,0.2115,0.2305,0.0901273148148
34200000,95.3266435583,139.864824704,73.0575529856,0.8125,0.2305,0.5895,0.0125,0.222,0.2345,0.0554090266375,0.0125,0.222,0.2345,0.0554090266375,0.0125,0.222,0.2345,0.0554090266375,0.0125,0.222,0.2345,0.0554090266375,0.0125,0.222,0.2345,0.0554090266375,0.0125,0.222,0.2345,0.0554090266375
34200000,95.35590887,142.959371171,71.5541777197,0.8465,0.2235,0.626,0.017,0.2215,0.2385,0.0783584358279,0.017,0.2215,0.2385,0.0783584358279,0.017,0.2215,0.2385,0.0783584358279,0.017,0.2215,0.2385,0.0783584358279,0.017,0.2215,0.2385,0.0783584358279,0.017,0.2215,0.2385,0.0783584358279
34200000,96.9628419662,143.437083824,73.7257210373,0.7845,0.238,0.553,0.0255,0.229,0.2545,0.112764423077,0.0255,0.229,0.2545,0.112764423077,0.0255,0.229,0.2545,0.112764423077,0.0255,0.229,0.2545,0.112764423077,0.0255,0.229,0.2545,0.112764423077,0.0255,0.229,0.2545,0.112764423077
34200000,97.3586430633,140.866623628,75.6046527809,0.7805,0.219,0.5795,0.014,0.203,0.217,0.0696288665039,0.014,0.203,0.217,0.0696288665039,0.014,0.203,0.217,0.0696288665039,0.014,0.203,0.217,0.0696288665039,0.014,0.203,0.217,0.0696288665039,0.014,0.203,0.217,0.0696288665039
34200000,98.1929111828,145.812238618,74.383247465,0.8105,0.2205,0.5945,0.01,0.2205,0.2305,0.0452612433862,0.01,0.2205,0.2305,0.0452612433862,0.01,0.2185,0.2285,0.0459226190476,0.01,0.2185,0.2285,0.0459226190476,0.01,0.2185,0.2285,0.0459226190476,0.01,0.2185,0.2285,0.0459226190476
34200000,98.8876003397,144.311082947,76.1758590358,0.79,0.2145,0.577,0.022,0.211,0.233,0.103832799145,0.022,0.211,0.233,0.103832799145,0.022,0.211,0.233,0.103832799145,0.022,0.211,0.233,0.103832799145,0.022,0.211,0.233,0.103832799145,0.022,0.211,0.233,0.103832799145
34200000,98.9555208574,145.528746529,75.6689080214,0.789,0.222,0.5665,0.009,0.216,0.225,0.0419973544974,0.009,0.216,0.225,0.0419973544974,0.009,0.216,0.225,0.0419973544974,0.009,0.216,0.225,0.0419973544974,0.009,0.216,0.225,0.0419973544974,0.009,0.216,0.225,0.0419973544974
34200000,99.1494917306,145.786253391,75.8311109006,0.7505,0.2105,0.5505,0.016,0.2105,0.2265,0.0761956908832,0.016,0.2105,0.2265,0.0761956908832,0.016,0.2105,0.2265,0.0761956908832,0.016,0.2105,0.2265,0.0761956908832,0.016,0.2105,0.2265,0.0761956908832,0.016,0.2105,0.2265,0.0761956908832
34200000,99.1850056049,145.261502191,76.1467573117,0.7715,0.226,0.5665,0.017,0.2185,0.2355,0.0845822494736,0.017,0.2185,0.2355,0.0845822494736,0.017,0.2185,0.2355,0.0845822494736,0.017,0.2145,0.2315,0.0851569621172,0.017,0.2145,0.2315,0.0851569621172,0.017,0.2145,0.2315,0.0851569621172
34200000,99.2566641714,147.168440159,75.3007761777,0.796,0.2165,0.5475,0.008,0.2115,0.2195,0.0378383190883,0.008,0.2115,0.2195,0.0378383190883,0.008,0.2115,0.2195,0.0378383190883,0.008,0.2115,0.2195,0.0378383190883,0.008,0.2115,0.2195,0.0378383190883,0.008,0.2115,0.2195,0.0378383190883
34200000,99.9095794272,147.699189405,76.0147744385,0.8075,0.216,0.5875,0.0125,0.2095,0.222,0.0586078042328,0.0125,0.2095,0.222,0.0586078042328,0.0125,0.2095,0.222,0.0586078042328,0.0125,0.2095,0.222,0.0586078042328,0.0125,0.2095,0.222,0.0586078042328,0.0125,0.2095,0.222,0.0586078042328
34200000,99.9654703244,146.886752775,76.5048290992,0.795,0.223,0.572,0.0125,0.2155,0.228,0.0583683375803,0.0125,0.2155,0.228,0.0583683375803,0.0125,0.2155,0.228,0.0583683375803,0.0125,0.2155,0.228,0.0583683375803,0.0125,0.2155,0.228,0.0583683375803,0.0125,0.2155,0.228,0.0583683375803
34200000,100.130299532,148.261489566,76.0647045144,0.777,0.269,0.527,0.017,0.25,0.267,0.0788757023277,0.017,0.25,0.267,0.0788757023277,0.017,0.25,0.267,0.0788757023277,0.017,0.25,0.267,0.0788757023277,0.017,0.25,0.267,0.0788757023277,0.017,0.25,0.267,0.0788757023277
34200000,100.443826288,148.189106498,76.571186183,0.799,0.2155,0.5825,0.016,0.1915,0.2075,0.0831974637681,0.016,0.1915,0.2075,0.0831974637681,0.016,0.1915,0.2075,0.0831974637681,0.016,0.1915,0.2075,0.0831974637681,0.016,0.1915,0.2075,0.0831974637681,0.016,0.1915,0.2075,0.0831974637681
34200000,100.609141328,145.5463619,78.1405310428,0.805,0.21,0.5855,0.012,0.202,0.214,0.0614619720055,0.012,0.202,0.214,0.0614619720055,0.012,0.202,0.214,0.0614619720055,0.012,0.202,0.214,0.0614619720055,0.012,0.202,0.214,0.0614619720055,0.012,0.202,0.214,0.0614619720055
34200000,100.770246908,147.453505802,77.4286174617,0.768,0.2175,0.5615,0.0185,0.2145,0.233,0.0867712701952,0.0185,0.2145,0.233,0.0867712701952,0.0185,0.2145,0.233,0.0867712701952,0.0185,0.2145,0.233,0.0867712701952,0.0185,0.2145,0.233,0.0867712701952,0.0185,0.2145,0.233,0.0867712701952
34200000,100.847596249,147.909052253,77.3168682467,0.8015,0.221,0.5815,0.018,0.2125,0.2305,0.0826611743731,0.018,0.2125,0.2305,0.0826611743731,0.018,0.2125,0.2305,0.0826611743731,0.018,0.2125,0.2305,0.0826611743731,0.018,0.2125,0.2305,0.0826611743731,0.018,0.2125,0.2305,0.0826611743731
34200000,100.996416174,147.414501818,77.7873733517,0.7945,0.2185,0.578,0.0165,0.2155,0.232,0.0764779202279,0.0165,0.2155,0.232,0.0764779202279,0.0165,0.2155,0.232,0.0764779202279,0.0165,0.2155,0.232,0.0764779202279,0.0165,0.2155,0.232,0.0764779202279,0.0165,0.2155,0.232,0.0764779202279
34200000,101.068752089,146.510613912,78.347821177,0.7995,0.2115,0.574,0.009,0.209,0.218,0.0455700549451,0.009,0.209,0.218,0.0455700549451,0.009,0.209,0.218,0.0455700549451,0.009,0.209,0.218,0.0455700549451,0.009,0.209,0.218,0.0455700549451,0.009,0.209,0.218,0.0455700549451
34200000,101.107754751,145.140930834,79.0911667096,0.8445,0.2115,0.6185,0.017,0.2095,0.2265,0.0838955026455,0.017,0.2095,0.2265,0.0838955026455,0.017,0.2095,0.2265,0.0838955026455,0.017,0.2095,0.2265,0.0838955026455,0.017,0.2095,0.2265,0.0838955026455,0.017,0.2095,0.2265,0.0838955026455
34200000,101.309586798,147.758268181,78.0852461062,0.7885,0.2215,0.571,0.009,0.2195,0.2285,0.0412940858631,0.009,0.2195,0.2285,0.0412940858631,0.009,0.2195,0.2285,0.0412940858631,0.009,0.2195,0.2285,0.0412940858631,0.009,0.2195,0.2285,0.0412940858631,0.009,0.2195,0.2285,0.0412940858631
34200000,101.509955297,148.358156532,78.0858546798,0.7785,0.2035,0.5735,0.0135,0.1895,0.203,0.0704090022297,0.0135,0.1895,0.203,0.0704090022297,0.0135,0.1895,0.203,0.0704090022297,0.0135,0.1895,0.203,0.0704090022297,0.0135,0.1895,0.203,0.0704090022297,0.0135,0.1895,0.203,0.0704090022297
34200000,101.744405608,149.139971671,78.0466225768,0.7915,0.223,0.576,0.034,0.2055,0.2395,0.16947255291,0.034,0.2055,0.2395,0.16947255291,0.034,0.2055,0.2395,0.16947255291,0.034,0.2055,0.2395,0.16947255291,0.034,0.2055,0.2395,0.16947255291,0.034,0.2055,0.2395,0.16947255291
34200000,102.364297413,149.162394087,78.9652490763,0.7845,0.225,0.564,0.014,0.1835,0.1975,0.0801875415033,0.014,0.1835,0.1975,0.0801875415033,0.014,0.1835,0.1975,0.0801875415033,0.014,0.1835,0.1975,0.0801875415033,0.014,0.1835,0.1975,0.0801875415033,0.014,0.1835,0.1975,0.0801875415033
34200000,102.452741973,147.394236877,79.9819945206,0.784,0.205,0.576,0.018,0.1885,0.2065,0.0959106744705,0.018,0.1885,0.2065,0.0959106744705,0.018,0.1885,0.2065,0.0959106744705,0.018,0.1885,0.2065,0.0959106744705,0.018,0.1885,0.2065,0.0959106744705,0.018,0.1885,0.2065,0.0959106744705
34200000,102.470781101,146.209113841,80.6016147308,0.753,0.218,0.4795,0.02,0.2125,0.2325,0.0932833485958,0.02,0.2125,0.2325,0.0932833485958,0.02,0.2125,0.2325,0.0932833485958,0.012,0.2125,0.2245,0.0562463115588,0.012,0.2125,0.2245,0.0562463115588,0.012,0.2125,0.2245,0.0562463115588
34200000,102.491628671,149.04829312,79.2132964474,0.8135,0.21,0.5985,0.019,0.2,0.219,0.0950632122507,0.015,0.2,0.215,0.0765446937322,0.015,0.2,0.215,0.0765446937322,0.015,0.2,0.215,0.0765446937322,0.015,0.2,0.215,0.0765446937322,0.015,0.2,0.215,0.0765446937322
34200000,102.517920379,148.636881205,79.458439966,0.81,0.216,0.5955,0.03,0.212,0.242,0.139462759463,0.03,0.212,0.242,0.139462759463,0.03,0.212,0.242,0.139462759463,0.03,0.212,0.242,0.139462759463,0.03,0.212,0.242,0.139462759463,0.03,0.212,0.242,0.139462759463
34200000,102.60475645,149.571100985,79.121584182,0.8135,0.2175,0.592,0.013,0.215,0.228,0.0601119251119,0.013,0.215,0.228,0.0601119251119,0.013,0.215,0.228,0.0601119251119,0.013,0.215,0.228,0.0601119251119,0.013,0.215,0.228,0.0601119251119,0.013,0.215,0.228,0.0601119251119
34200000,102.871585705,148.809013218,79.9028719493,0.7765,0.2085,0.5685,0.013,0.205,0.218,0.0631295787546,0.013,0.205,0.218,0.0631295787546,0.013,0.205,0.218,0.0631295787546,0.013,0.205,0.218,0.0631295787546,0.013,0.205,0.218,0.0631295787546,0.013,0.205,0.218,0.0631295787546
34200000,102.889007696,147.227036749,80.7199931695,0.752,0.267,0.5145,0.0115,0.245,0.2565,0.048903455613,0.0115,0.245,0.2565,0.048903455613,0.0115,0.245,0.2565,0.048903455613,0.0115,0.245,0.2565,0.048903455613,0.0115,0.245,0.2565,0.048903455613,0.0115,0.245,0.2565,0.048903455613
34200000,102.907356548,149.452962629,79.6345535077,0.7845,0.2205,0.57,0.0125,0.216,0.2285,0.0577291482464,0.0125,0.216,0.2285,0.0577291482464,0.0125,0.216,0.2285,0.0577291482464,0.0125,0.216,0.2285,0.0577291482464,0.0125,0.216,0.2285,0.0577291482464,0.0125,0.216,0.2285,0.0577291482464
34200000,103.309020856,149.285517719,80.3207724239,0.782,0.233,0.5535,0.009,0.2305,0.2395,0.0385104456319,0.009,0.2305,0.2395,0.0385104456319,0.009,0.2305,0.2395,0.0385104456319,0.009,0.2305,0.2395,0.0385104456319,0.009,0.2305,0.2395,0.0385104456319,0.009,0.2305,0.2395,0.0385104456319
34200000,103.33817194,149.607008238,80.2037537917,0.7985,0.213,0.59,0.012,0.2055,0.2175,0.0614335382814,0.012,0.2055,0.2175,0.0614335382814,0.012,0.2055,0.2175,0.0614335382814,0.012,0.2055,0.2175,0.0614335382814,0.012,0.2055,0.2175,0.0614335382814,0.012,0.2055,0.2175,0.0614335382814
34200000,103.521826239,149.611404385,80.4770371656,0.776,0.211,0.5625,0.0095,0.205,0.2145,0.0457760989011,0.0095,0.205,0.2145,0.0457760989011,0.0095,0.205,0.2145,0.0457760989011,0.0095,0.205,0.2145,0.0457760989011,0.0095,0.205,0.2145,0.0457760989011,0.0095,0.205,0.2145,0.0457760989011
34200000,103.668118299,149.034078617,80.9851381401,0.7835,0.2105,0.578,0.015,0.2055,0.2205,0.0728748219373,0.015,0.2055,0.2205,0.0728748219373,0.015,0.2055,0.2205,0.0728748219373,0.015,0.2055,0.2205,0.0728748219373,0.015,0.2055,0.2205,0.0728748219373,0.015,0.2055,0.2205,0.0728748219373
34200000,103.721836088,148.609657735,81.2779252645,0.795,0.2175,0.5715,0.0105,0.216,0.2265,0.0485052910053,0.0105,0.216,0.2265,0.0485052910053,0.0105,0.216,0.2265,0.0485052910053,0.0105,0.216,0.2265,0.0485052910053,0.0105,0.216,0.2265,0.0485052910053,0.0105,0.216,0.2265,0.0485052910053
34200000,103.882931556,149.641534783,81.0036299431,0.786,0.223,0.5605,0.014,0.2145,0.2285,0.0667933920754,0.014,0.2145,0.2285,0.0667933920754,0.014,0.2145,0.2285,0.0667933920754,0.014,0.2145,0.2285,0.0667933920754,0.014,0.2145,0.2285,0.0667933920754,0.014,0.2145,0.2285,0.0667933920754
34200000,104.433989089,149.383624426,81.9591714204,0.769,0.212,0.5495,0.013,0.207,0.22,0.0628917378917,0.013,0.207,0.22,0.0628917378917,0.013,0.207,0.22,0.0628917378917,0.012,0.207,0.219,0.0578917378917,0.012,0.207,0.219,0.0578917378917,0.012,0.207,0.219,0.0578917378917
34200000,104.50916835,149.119023392,82.2042408296,0.796,0.2905,0.5545,0.0105,0.2705,0.281,0.0431344118844,0.0105,0.2705,0.281,0.0431344118844,0.0105,0.2705,0.281,0.0431344118844,0.0105,0.2705,0.281,0.0431344118844,0.0105,0.2705,0.281,0.0431344118844,0.0105,0.2705,0.281,0.0431344118844
34200000,104.921243676,149.53317381,82.6152786087,0.768,0.218,0.55,0.017,0.2,0.217,0.0849501424501,0.017,0.2,0.217,0.0849501424501,0.017,0.2,0.217,0.0849501424501,0.017,0.2,0.217,0.0849501424501,0.016,0.2,0.216,0.0801424501425,0.016,0.2,0.216,0.0801424501425
34200000,105.050496915,149.285565762,82.9329624919,0.778,0.214,0.575,0.0165,0.207,0.2235,0.0796153846154,0.0165,0.207,0.2235,0.0796153846154,0.0165,0.207,0.2235,0.0796153846154,0.0165,0.207,0.2235,0.0796153846154,0.0165,0.207,0.2235,0.0796153846154,0.0165,0.207,0.2235,0.0796153846154
34200000,106.340718905,149.404970738,84.8085929881,0.804,0.211,0.5305,0.022,0.2075,0.2295,0.108592541718,0.02,0.2075,0.2275,0.0985925417175,0.02,0.2075,0.2275,0.0985925417175,0.02,0.2075,0.2275,0.0985925417175,0.02,0.2075,0.2275,0.0985925417175,0.02,0.2075,0.2275,0.0985925417175
34200000,107.451228521,149.555677113,86.3990042257,0.7545,0.2025,0.551,0.0105,0.2005,0.211,0.0524002849003,0.0105,0.2005,0.211,0.0524002849003,0.0105,0.2005,0.211,0.0524002849003,0.0105,0.2005,0.211,0.0524002849003,0.0105,0.2005,0.211,0.0524002849003,0.0105,0.2005,0.211,0.0524002849003
34240000,99.1162809788,144.652360226,76.3482413551,0.728,0.207,0.516,0.01,0.2015,0.2115,0.0497435897436,0.01,0.2015,0.2115,0.0497435897436,0.01,0.2015,0.2115,0.0497435897436,0.01,0.2015,0.2115,0.0497435897436,0.01,0.2015,0.2115,0.0497435897436,0.01,0.2015,0.2115,0.0497435897436
34240000,99.275963858,145.632147917,76.0978718284,0.735,0.2075,0.531,0.0115,0.2015,0.213,0.0582049291288,0.0115,0.2015,0.213,0.0582049291288,0.0115,0.2015,0.213,0.0582049291288,0.0115,0.2015,0.213,0.0582049291288,0.0115,0.2015,0.213,0.0582049291288,0.0115,0.2015,0.213,0.0582049291288
34240000,100.262000815,147.612483321,76.5867595613,0.7265,0.573,0.4195,0.008,0.5665,0.5745,0.0236214451058,0.008,0.5665,0.5745,0.0236214451058,0.008,0.5665,0.5745,0.0236214451058,0.008,0.5665,0.5745,0.0236214451058,0.008,0.5665,0.5745,0.0236214451058,0.008,0.5665,0.5745,0.0236214451058
34240000,101.339239856,148.496208083,77.7607557423,0.732,0.2,0.528,0.016,0.2,0.216,0.0801282051282,0.016,0.2,0.216,0.0801282051282,0.016,0.2,0.216,0.0801282051282,0.016,0.2,0.216,0.0801282051282,0.016,0.2,0.216,0.0801282051282,0.016,0.2,0.216,0.0801282051282
34240000,102.073959255,149.073421085,78.5742283394,0.761,0.2125,0.4675,0.014,0.2125,0.2265,0.0676678213091,0.014,0.2125,0.2265,0.0676678213091,0.014,0.2125,0.2265,0.0676678213091,0.014,0.2125,0.2265,0.0676678213091,0.014,0.2125,0.2265,0.0676678213091,0.014,0.2125,0.2265,0.0676678213091
34240000,102.859245304,148.853673525,79.8620311941,0.664,0.216,0.4685,0.015,0.1995,0.2145,0.074681510619,0.015,0.1995,0.2145,0.074681510619,0.015,0.1995,0.2145,0.074681510619,0.015,0.1995,0.2145,0.074681510619,0.015,0.1995,0.2145,0.074681510619,0.015,0.1995,0.2145,0.074681510619
34240000,102.861345143,149.016840524,79.7835974528,0.677,0.1805,0.449,0.012,0.1745,0.1865,0.0698051948052,0.012,0.1745,0.1865,0.0698051948052,0.012,0.1745,0.1865,0.0698051948052,0.012,0.1745,0.1865,0.0698051948052,0.012,0.1745,0.1865,0.0698051948052,0.012,0.1745,0.1865,0.0698051948052
34240000,103.157533689,147.92676845,80.7729163085,0.691,0.196,0.491,0.013,0.193,0.206,0.0670695111048,0.013,0.193,0.206,0.0670695111048,0.013,0.193,0.206,0.0670695111048,0.013,0.193,0.206,0.0670695111048,0.013,0.193,0.206,0.0670695111048,0.013,0.193,0.206,0.0670695111048
34240000,103.424006261,149.372323799,80.4498474912,0.6845,0.1985,0.489,0.0115,0.1945,0.206,0.0602267976589,0.0115,0.1945,0.206,0.0602267976589,0.0115,0.1945,0.206,0.0602267976589,0.0115,0.1945,0.206,0.0602267976589,0.0115,0.1945,0.206,0.0602267976589,0.0115,0.1945,0.206,0.0602267976589
34240000,104.278357095,148.97529775,81.9298867677,0.6775,0.213,0.468,0.0185,0.2035,0.222,0.0982444498069,0.0185,0.2035,0.222,0.0982444498069,0.0185,0.2035,0.222,0.0982444498069,0.0185,0.2035,0.222,0.0982444498069,0.0185,0.2035,0.222,0.0982444498069,0.0185,0.2035,0.222,0.0982444498069
34240000,104.876957983,149.818000557,82.4064366961,0.698,0.2005,0.4895,0.0105,0.19,0.2005,0.0557155797101,0.0105,0.19,0.2005,0.0557155797101,0.0105,0.19,0.2005,0.0557155797101,0.0105,0.19,0.2005,0.0557155797101,0.0105,0.19,0.2005,0.0557155797101,0.0105,0.19,0.2005,0.0557155797101
34240000,104.988250496,149.832669188,82.5660411503,0.684,0.1885,0.4875,0.0135,0.1815,0.195,0.0737915843215,0.0135,0.1815,0.195,0.0737915843215,0.0135,0.1815,0.195,0.0737915843215,0.0135,0.1815,0.195,0.0737915843215,0.0135,0.1815,0.195,0.0737915843215,0.0135,0.1815,0.195,0.0737915843215
34240000,105.1195832,149.224862576,83.0669435125,0.77,0.2725,0.4055,0.015,0.272,0.287,0.0511093038386,0.015,0.272,0.287,0.0511093038386,0.015,0.272,0.287,0.0511093038386,0.015,0.272,0.287,0.0511093038386,0.015,0.272,0.287,0.0511093038386,0.015,0.272,0.287,0.0511093038386
34480000,94.9371012784,135.8027479,74.5042779673,0.706,0.1955,0.529,0.011,0.178,0.189,0.0624128649129,0.011,0.178,0.189,0.0624128649129,0.011,0.178,0.189,0.0624128649129,0.011,0.178,0.189,0.0624128649129,0.011,0.178,0.189,0.0624128649129,0.01,0.178,0.188,0.056731046731
34480000,97.8422449084,143.868917087,74.828908819,0.7695,0.199,0.5835,0.027,0.196,0.223,0.137527173913,0.027,0.196,0.223,0.137527173913,0.027,0.196,0.223,0.137527173913,0.027,0.196,0.223,0.137527173913,0.027,0.196,0.223,0.137527173913,0.027,0.196,0.223,0.137527173913
34480000,98.8492241323,148.366768959,74.0904517188,0.8055,0.2005,0.605,0.012,0.1955,0.2075,0.0620302795031,0.012,0.1955,0.2075,0.0620302795031,0.012,0.1955,0.2075,0.0620302795031,0.012,0.1955,0.2075,0.0620302795031,0.012,0.1955,0.2075,0.0620302795031,0.012,0.1955,0.2075,0.0620302795031
34480000,99.5796378354,149.576927989,74.5809927586,0.7925,0.194,0.5965,0.0135,0.189,0.2025,0.0699682971014,0.0135,0.189,0.2025,0.0699682971014,0.0135,0.189,0.2025,0.0699682971014,0.0135,0.189,0.2025,0.0699682971014,0.0135,0.189,0.2025,0.0699682971014,0.0135,0.189,0.2025,0.0699682971014
34480000,100.183211247,150.062983409,75.2433251661,0.797,0.1995,0.5995,0.0125,0.193,0.2055,0.0667992424242,0.0125,0.193,0.2055,0.0667992424242,0.0125,0.193,0.2055,0.0667992424242,0.0125,0.193,0.2055,0.0667992424242,0.0125,0.193,0.2055,0.0667992424242,0.0125,0.193,0.2055,0.0667992424242
34480000,100.402007556,149.620496481,75.7927630936,0.784,0.1985,0.5845,0.0215,0.183,0.2045,0.118682065217,0.0215,0.183,0.2045,0.118682065217,0.0215,0.183,0.2045,0.118682065217,0.0215,0.183,0.2045,0.118682065217,0.0215,0.183,0.2045,0.118682065217,0.0215,0.183,0.2045,0.118682065217
34480000,100.625780649,149.763215003,76.0570634723,0.7865,0.196,0.5805,0.0135,0.1875,0.201,0.0720561594203,0.0135,0.1875,0.201,0.0720561594203,0.0135,0.1875,0.201,0.0720561594203,0.0135,0.1875,0.201,0.0720561594203,0.0135,0.1875,0.201,0.0720561594203,0.0135,0.1875,0.201,0.0720561594203
34480000,100.682321815,149.641045352,76.2029600464,0.786,0.192,0.582,0.016,0.182,0.198,0.0850595238095,0.016,0.182,0.198,0.0850595238095,0.016,0.182,0.198,0.0850595238095,0.016,0.182,0.198,0.0850595238095,0.016,0.182,0.198,0.0850595238095,0.016,0.182,0.198,0.0850595238095
34480000,100.795803144,149.428751698,76.4793288666,0.772,0.2005,0.571,0.0115,0.193,0.2045,0.0595359848485,0.0115,0.193,0.2045,0.0595359848485,0.0115,0.193,0.2045,0.0595359848485,0.0115,0.193,0.2045,0.0595359848485,0.0115,0.193,0.2045,0.0595359848485,0.0115,0.193,0.2045,0.0595359848485
34480000,100.863381971,148.646620515,76.9717626995,0.85,0.227,0.6345,0.016,0.221,0.237,0.0734120283511,0.016,0.221,0.237,0.0734120283511,0.016,0.221,0.237,0.0734120283511,0.016,0.221,0.237,0.0734120283511,0.016,0.221,0.237,0.0734120283511,0.016,0.219,0.235,0.0748365297756
34480000,100.986389326,150.089522128,76.4348229251,0.809,0.201,0.6105,0.0205,0.197,0.2175,0.102846215781,0.0205,0.197,0.2175,0.102846215781,0.0205,0.197,0.2175,0.102846215781,0.0205,0.197,0.2175,0.102846215781,0.0205,0.197,0.2175,0.102846215781,0.0205,0.197,0.2175,0.102846215781
34480000,101.001292106,149.986934576,76.5084708711,0.8035,0.1995,0.6045,0.0195,0.1955,0.215,0.0995535714286,0.0195,0.1955,0.215,0.0995535714286,0.0195,0.1955,0.215,0.0995535714286,0.0195,0.1955,0.215,0.0995535714286,0.0195,0.1955,0.215,0.0995535714286,0.0195,0.1955,0.215,0.0995535714286
34480000,101.011767788,149.883017052,76.5761431554,0.7945,0.1995,0.5985,0.013,0.187,0.2,0.0695561594203,0.013,0.187,0.2,0.0695561594203,0.013,0.187,0.2,0.0695561594203,0.013,0.187,0.2,0.0695561594203,0.013,0.187,0.2,0.0695561594203,0.013,0.187,0.2,0.0695561594203
34480000,101.025118934,149.653839332,76.7107587359,0.811,0.202,0.61,0.031,0.192,0.223,0.162782190635,0.031,0.192,0.223,0.162782190635,0.031,0.192,0.223,0.162782190635,0.031,0.192,0.223,0.162782190635,0.031,0.192,0.223,0.162782190635,0.031,0.192,0.223,0.162782190635
34480000,101.113963376,149.782959791,76.7794651681,0.8565,0.225,0.642,0.0165,0.2245,0.241,0.0736236544426,0.0165,0.2245,0.241,0.0736236544426,0.0165,0.2245,0.241,0.0736236544426,0.0165,0.2245,0.241,0.0736236544426,0.0165,0.2245,0.241,0.0736236544426,0.0165,0.2245,0.241,0.0736236544426
34480000,101.29334986,150.172809934,76.8536198225,0.8105,0.198,0.6125,0.02,0.1945,0.2145,0.101262175325,0.02,0.1945,0.2145,0.101262175325,0.02,0.1945,0.2145,0.101262175325,0.02,0.1945,0.2145,0.101262175325,0.02,0.1945,0.2145,0.101262175325,0.02,0.1945,0.2145,0.101262175325
34480000,101.851221985,149.839764475,77.8569507395,0.848,0.218,0.623,0.012,0.214,0.226,0.0559339387464,0.012,0.214,0.226,0.0559339387464,0.012,0.214,0.226,0.0559339387464,0.012,0.214,0.226,0.0559339387464,0.012,0.214,0.226,0.0559339387464,0.012,0.214,0.226,0.0559339387464
34480000,102.01348477,149.94046818,78.0499930654,0.779,0.19,0.585,0.016,0.1825,0.1985,0.0910272804774,0.016,0.1825,0.1985,0.0910272804774,0.016,0.1825,0.1985,0.0910272804774,0.016,0.1825,0.1985,0.0910272804774,0.016,0.1825,0.1985,0.0910272804774,0.016,0.1825,0.1985,0.0910272804774
34480000,102.72091842,150.035114315,79.0638204722,0.8145,0.2015,0.612,0.023,0.1885,0.2115,0.121882917807,0.023,0.1885,0.2115,0.121882917807,0.023,0.1885,0.2115,0.121882917807,0.023,0.1885,0.2115,0.121882917807,0.023,0.1885,0.2115,0.121882917807,0.023,0.1885,0.2115,0.121882917807
34480000,102.742178695,149.971499721,79.1275181826,0.842,0.2215,0.4135,0.011,0.206,0.217,0.0528288633461,0.011,0.206,0.217,0.0528288633461,0.011,0.206,0.217,0.0528288633461,0.011,0.206,0.217,0.0528288633461,0.011,0.206,0.217,0.0528288633461,0.011,0.206,0.217,0.0528288633461
34480000,103.079449485,150.471469069,79.3834396933,0.8025,0.199,0.6015,0.0125,0.184,0.1965,0.0688920454545,0.0125,0.184,0.1965,0.0688920454545,0.0125,0.184,0.1965,0.0688920454545,0.0125,0.184,0.1965,0.0688920454545,0.0125,0.184,0.1965,0.0688920454545,0.0125,0.184,0.1965,0.0688920454545
34480000,103.435399668,150.137045433,80.084576786,0.781,0.207,0.5825,0.01,0.2045,0.2145,0.0491870629371,0.01,0.2045,0.2145,0.0491870629371,0.01,0.2045,0.2145,0.0491870629371,0.01,0.2045,0.2145,0.0491870629371,0.01,0.2045,0.2145,0.0491870629371,0.01,0.2045,0.2145,0.0491870629371
34480000,103.737552344,150.257277492,80.4776897699,0.777,0.201,0.5815,0.0435,0.201,0.2445,0.217857142857,0.0435,0.201,0.2445,0.217857142857,0.0435,0.201,0.2445,0.217857142857,0.0235,0.201,0.2245,0.117857142857,0.0235,0.201,0.2245,0.117857142857,0.0235,0.201,0.2245,0.117857142857
34480000,103.76523235,150.24551158,80.5250927356,0.8055,0.2015,0.5995,0.019,0.173,0.192,0.110024886547,0.019,0.173,0.192,0.110024886547,0.019,0.173,0.192,0.110024886547,0.019,0.173,0.192,0.110024886547,0.019,0.173,0.192,0.110024886547,0.019,0.173,0.192,0.110024886547
34480000,104.255880741,149.739806737,81.5139177433,0.7935,0.195,0.5915,0.009,0.186,0.195,0.0483703886693,0.009,0.182,0.191,0.0492399538867,0.009,0.182,0.191,0.0492399538867,0.009,0.182,0.191,0.0492399538867,0.009,0.182,0.191,0.0492399538867,0.009,0.182,0.191,0.0492399538867
34480000,104.372588137,150.101339841,81.5082122845,0.7725,0.1925,0.5735,0.013,0.1865,0.1995,0.0705402432712,0.013,0.1865,0.1995,0.0705402432712,0.013,0.1865,0.1995,0.0705402432712,0.013,0.1865,0.1995,0.0705402432712,0.013,0.1865,0.1995,0.0705402432712,0.013,0.1865,0.1995,0.0705402432712
34480000,104.544320728,150.37412834,81.6294169227,0.7725,0.195,0.571,0.008,0.189,0.197,0.042534965035,0.008,0.189,0.197,0.042534965035,0.008,0.189,0.197,0.042534965035,0.008,0.189,0.197,0.042534965035,0.008,0.189,0.197,0.042534965035,0.008,0.189,0.197,0.042534965035
34480000,105.387179422,148.475011084,83.8432635909,0.75,0.2005,0.5465,0.0185,0.195,0.2135,0.0933738191633,0.0185,0.195,0.2135,0.0933738191633,0.0185,0.195,0.2135,0.0933738191633,0.0185,0.195,0.2135,0.0933738191633,0.0185,0.195,0.2135,0.0933738191633,0.0185,0.195,0.2135,0.0933738191633
34480000,106.342504203,150.44869075,84.2894109291,0.786,0.254,0.555,0.0155,0.234,0.2495,0.0612710216087,0.0155,0.234,0.2495,0.0612710216087,0.0155,0.234,0.2495,0.0612710216087,0.0155,0.234,0.2495,0.0612710216087,0.0155,0.234,0.2495,0.0612710216087,0.0155,0.234,0.2495,0.0612710216087
34600000,94.618010478,138.530824851,72.6616032913,0.785,0.183,0.6055,0.011,0.181,0.192,0.0610648409561,0.011,0.181,0.192,0.0610648409561,0.011,0.181,0.192,0.0610648409561,0.011,0.181,0.192,0.0610648409561,0.011,0.181,0.192,0.0610648409561,0.011,0.181,0.192,0.0610648409561
34600000,95.6529752532,138.523164022,74.2178808687,0.7775,0.1915,0.583,0.0165,0.184,0.2005,0.0898482000456,0.0165,0.184,0.2005,0.0898482000456,0.0165,0.184,0.2005,0.0898482000456,0.0165,0.184,0.2005,0.0898482000456,0.0165,0.184,0.2005,0.0898482000456,0.0165,0.184,0.2005,0.0898482000456
34600000,95.7493773504,139.876993258,73.6855693966,0.7805,0.177,0.5945,0.0185,0.1665,0.185,0.110643115942,0.0185,0.1665,0.185,0.110643115942,0.0185,0.1665,0.185,0.110643115942,0.0185,0.1665,0.185,0.110643115942,0.0185,0.1665,0.185,0.110643115942,0.0185,0.1665,0.185,0.110643115942
34600000,96.050161479,139.788772124,74.1808561566,0.7615,0.186,0.5805,0.0155,0.1765,0.192,0.0909678453157,0.0155,0.1765,0.192,0.0909678453157,0.0155,0.1765,0.192,0.0909678453157,0.0155,0.1765,0.192,0.0909678453157,0.0155,0.1765,0.192,0.0909678453157,0.0155,0.1765,0.192,0.0909678453157
34600000,96.9185046153,141.159433443,74.7980402014,0.774,0.1945,0.5865,0.021,0.1895,0.2105,0.110333281326,0.021,0.1895,0.2105,0.110333281326,0.021,0.1895,0.2105,0.110333281326,0.021,0.1895,0.2105,0.110333281326,0.021,0.1895,0.2105,0.110333281326,0.021,0.1895,0.2105,0.110333281326
34600000,97.622237705,141.10367842,75.8815173478,0.751,0.1855,0.565,0.017,0.1815,0.1985,0.0935500188218,0.017,0.1815,0.1985,0.0935500188218,0.017,0.1815,0.1985,0.0935500188218,0.017,0.1815,0.1985,0.0935500188218,0.017,0.1815,0.1985,0.0935500188218,0.017,0.1815,0.1985,0.0935500188218
34600000,98.1185554716,142.672983455,75.8413414796,0.7655,0.1855,0.58,0.013,0.1675,0.1805,0.0784228151076,0.013,0.1675,0.1805,0.0784228151076,0.013,0.1675,0.1805,0.0784228151076,0.013,0.1675,0.1805,0.0784228151076,0.013,0.1675,0.1805,0.0784228151076,0.013,0.1675,0.1805,0.0784228151076
34600000,98.2183707823,143.344618099,75.6552471238,0.742,0.1855,0.5555,0.0145,0.1775,0.192,0.0818922924901,0.0145,0.1775,0.192,0.0818922924901,0.0145,0.1775,0.192,0.0818922924901,0.0145,0.1775,0.192,0.0818922924901,0.0145,0.1775,0.192,0.0818922924901,0.0145,0.1775,0.192,0.0818922924901
34600000,98.5589020039,142.330651445,76.6730272835,0.764,0.1825,0.58,0.0085,0.162,0.1705,0.0526199494949,0.0085,0.162,0.1705,0.0526199494949,0.0085,0.162,0.1705,0.0526199494949,0.0085,0.162,0.1705,0.0526199494949,0.0085,0.162,0.1705,0.0526199494949,0.0085,0.162,0.1705,0.0526199494949
34600000,98.6141833086,144.250168052,75.7961909367,0.778,0.187,0.5865,0.0105,0.1835,0.194,0.0571887351779,0.0105,0.1835,0.194,0.0571887351779,0.0105,0.1835,0.194,0.0571887351779,0.0105,0.1835,0.194,0.0571887351779,0.0105,0.1835,0.194,0.0571887351779,0.0105,0.1835,0.194,0.0571887351779
34600000,98.8230676772,142.797883231,76.8356599002,0.751,0.1825,0.5665,0.0105,0.1825,0.193,0.0573740118577,0.0105,0.1825,0.193,0.0573740118577,0.0105,0.1825,0.193,0.0573740118577,0.0105,0.1825,0.193,0.0573740118577,0.0105,0.1825,0.193,0.0573740118577,0.0105,0.1825,0.193,0.0573740118577
34600000,98.8242359706,143.72211177,76.3752980712,0.7925,0.314,0.5905,0.0165,0.306,0.3225,0.0712367724868,0.0165,0.306,0.3225,0.0712367724868,0.0165,0.306,0.3225,0.0712367724868,0.0165,0.306,0.3225,0.0712367724868,0.0165,0.306,0.3225,0.0712367724868,0.0165,0.306,0.3225,0.0712367724868
34600000,98.8341393958,142.84659549,76.8279113486,0.7635,0.18,0.563,0.01,0.168,0.178,0.0618717061924,0.01,0.168,0.178,0.0618717061924,0.01,0.168,0.178,0.0618717061924,0.01,0.168,0.178,0.0618717061924,0.01,0.168,0.178,0.0618717061924,0.01,0.168,0.178,0.0618717061924
34600000,98.974769295,143.626086605,76.64911064,0.755,0.186,0.57,0.008,0.175,0.183,0.0457927489177,0.008,0.175,0.183,0.0457927489177,0.008,0.175,0.183,0.0457927489177,0.008,0.175,0.183,0.0457927489177,0.008,0.175,0.183,0.0457927489177,0.008,0.175,0.183,0.0457927489177
34600000,99.3932114991,144.050281572,77.0646764629,0.778,0.188,0.583,0.018,0.181,0.199,0.0981348814229,0.018,0.181,0.199,0.0981348814229,0.018,0.181,0.199,0.0981348814229,0.018,0.181,0.199,0.0981348814229,0.018,0.181,0.199,0.0981348814229,0.018,0.181,0.199,0.0981348814229
34600000,99.7417208832,145.115196241,77.0549832041,0.727,0.184,0.542,0.026,0.1675,0.1935,0.150159964305,0.026,0.1675,0.1935,0.150159964305,0.026,0.1675,0.1935,0.150159964305,0.026,0.1675,0.1935,0.150159964305,0.026,0.1675,0.1935,0.150159964305,0.026,0.1675,0.1935,0.150159964305
34600000,99.7782487186,145.528883612,76.902931272,0.7585,0.1795,0.573,0.0185,0.178,0.1965,0.104162549407,0.0185,0.178,0.1965,0.104162549407,0.0185,0.178,0.1965,0.104162549407,0.0185,0.178,0.1965,0.104162549407,0.0185,0.178,0.1965,0.104162549407,0.0185,0.178,0.1965,0.104162549407
34600000,99.9175494877,144.901277822,77.4256853206,0.754,0.185,0.5695,0.0135,0.177,0.1905,0.0752470355731,0.0135,0.177,0.1905,0.0752470355731,0.012,0.177,0.189,0.0670948616601,0.012,0.177,0.189,0.0670948616601,0.012,0.177,0.189,0.0670948616601,0.012,0.177,0.189,0.0670948616601
34600000,100.048389292,145.175864059,77.4846519078,0.739,0.175,0.564,0.0225,0.1725,0.195,0.130275974026,0.0225,0.1725,0.195,0.130275974026,0.0225,0.1725,0.195,0.130275974026,0.0225,0.1725,0.195,0.130275974026,0.0225,0.1725,0.195,0.130275974026,0.0225,0.1725,0.195,0.130275974026
34600000,100.13651044,145.164716648,77.6224073362,0.7675,0.184,0.583,0.023,0.1755,0.1985,0.132843379447,0.023,0.1755,0.1985,0.132843379447,0.023,0.1755,0.1985,0.132843379447,0.022,0.1755,0.1975,0.127161561265,0.021,0.1755,0.1965,0.120911561265,0.021,0.1755,0.1965,0.120911561265
34600000,100.242814588,146.251490434,77.2384766645,0.734,0.1765,0.556,0.02,0.1715,0.1915,0.120980308664,0.02,0.1715,0.1915,0.120980308664,0.02,0.1715,0.1915,0.120980308664,0.02,0.1715,0.1915,0.120980308664,0.02,0.1715,0.1915,0.120980308664,0.02,0.1715,0.1915,0.120980308664
34600000,100.612828345,145.632677589,78.1029037224,0.758,0.1805,0.5795,0.018,0.18,0.198,0.0986451275174,0.018,0.18,0.198,0.0986451275174,0.018,0.18,0.198,0.0986451275174,0.018,0.18,0.198,0.0986451275174,0.018,0.18,0.198,0.0986451275174,0.018,0.18,0.198,0.0986451275174
34600000,100.637037893,146.186790703,77.8621614882,0.7845,0.1885,0.59,0.03,0.188,0.218,0.158514492754,0.03,0.188,0.218,0.158514492754,0.03,0.188,0.218,0.158514492754,0.03,0.188,0.218,0.158514492754,0.03,0.188,0.218,0.158514492754,0.03,0.188,0.218,0.158514492754
34600000,100.775844523,146.510004331,77.908764619,0.732,0.1795,0.558,0.0155,0.178,0.1935,0.0863406068569,0.0155,0.178,0.1935,0.0863406068569,0.0155,0.178,0.1935,0.0863406068569,0.0155,0.178,0.1935,0.0863406068569,0.0155,0.178,0.1935,0.0863406068569,0.0155,0.178,0.1935,0.0863406068569
34600000,101.785098689,146.626280645,79.3645077109,0.7455,0.188,0.5675,0.009,0.1855,0.1945,0.0495438076416,0.009,0.1855,0.1945,0.0495438076416,0.009,0.1855,0.1945,0.0495438076416,0.009,0.1855,0.1945,0.0495438076416,0.009,0.1855,0.1945,0.0495438076416,0.009,0.1855,0.1945,0.0495438076416
34600000,101.924925566,146.541524909,79.6166258943,0.7385,0.184,0.553,0.019,0.1705,0.1895,0.113487750173,0.019,0.1705,0.1895,0.113487750173,0.019,0.1705,0.1895,0.113487750173,0.019,0.1705,0.1895,0.113487750173,0.019,0.1705,0.1895,0.113487750173,0.019,0.1705,0.1895,0.113487750173
34600000,102.036585664,147.637700805,79.2360280933,0.752,0.1835,0.56,0.012,0.167,0.179,0.0734138257576,0.012,0.167,0.179,0.0734138257576,0.012,0.167,0.179,0.0734138257576,0.012,0.167,0.179,0.0734138257576,0.012,0.167,0.179,0.0734138257576,0.012,0.167,0.179,0.0734138257576
34600000,102.55871829,147.615566812,80.0302940285,0.7165,0.1965,0.526,0.017,0.1955,0.2125,0.0900064609304,0.017,0.1955,0.2125,0.0900064609304,0.017,0.1955,0.2125,0.0900064609304,0.017,0.1955,0.2125,0.0900064609304,0.017,0.1955,0.2125,0.0900064609304,0.017,0.1955,0.2125,0.0900064609304
34600000,103.107159417,146.981436886,81.1700206822,0.7895,0.3625,0.5135,0.011,0.3615,0.3725,0.0451891358425,0.011,0.3615,0.3725,0.0451891358425,0.011,0.3615,0.3725,0.0451891358425,0.011,0.3615,0.3725,0.0451891358425,0.011,0.3615,0.3725,0.0451891358425,0.011,0.3615,0.3725,0.0451891358425
34600000,103.258731585,148.865683213,80.4552557715,0.7235,0.1805,0.5415,0.0085,0.167,0.1755,0.0507116977226,0.0085,0.167,0.1755,0.0507116977226,0.0085,0.167,0.1755,0.0507116977226,0.0085,0.167,0.1755,0.0507116977226,0.0085,0.167,0.1755,0.0507116977226,0.0085,0.167,0.1755,0.0507116977226
34600000,103.29083948,148.944125614,80.4641964123,0.708,0.1835,0.5225,0.013,0.1835,0.1965,0.0708992094862,0.013,0.1835,0.1965,0.0708992094862,0.013,0.1835,0.1965,0.0708992094862,0.013,0.1835,0.1965,0.0708992094862,0.013,0.1835,0.1965,0.0708992094862,0.013,0.1835,0.1965,0.0708992094862
34600000,103.305475455,148.733597318,80.5914145233,0.7455,0.181,0.563,0.0085,0.1715,0.18,0.0494012328251,0.0085,0.1715,0.18,0.0494012328251,0.0085,0.1715,0.18,0.0494012328251,0.0085,0.1715,0.18,0.0494012328251,0.0085,0.1715,0.18,0.0494012328251,0.0085,0.1715,0.18,0.0494012328251
34600000,103.544457808,149.318192649,80.6575903875,0.714,0.18,0.5385,0.01,0.173,0.183,0.0588068181818,0.01,0.173,0.183,0.0588068181818,0.01,0.173,0.183,0.0588068181818,0.01,0.173,0.183,0.0588068181818,0.01,0.173,0.183,0.0588068181818,0.01,0.173,0.183,0.0588068181818
34600000,104.537455041,149.861052332,81.8756563947,0.7075,0.206,0.522,0.012,0.1955,0.2075,0.0576172320005,0.012,0.1955,0.2075,0.0576172320005,0.012,0.1955,0.2075,0.0576172320005,0.012,0.1955,0.2075,0.0576172320005,0.012,0.1955,0.2075,0.0576172320005,0.012,0.1955,0.2075,0.0576172320005
34640000,100.072429981,144.184572339,78.0163588026,0.816,0.1865,0.622,0.0155,0.1795,0.195,0.0888699639415,0.0155,0.1795,0.195,0.0888699639415,0.0155,0.1795,0.195,0.0888699639415,0.0155,0.1795,0.195,0.0888699639415,0.0155,0.1795,0.195,0.0888699639415,0.0155,0.1795,0.195,0.0888699639415
34640000,101.649247953,146.445814086,79.2509648868,0.807,0.1875,0.6145,0.0135,0.1805,0.194,0.0746385046113,0.0135,0.1805,0.194,0.0746385046113,0.0135,0.1805,0.194,0.0746385046113,0.0135,0.1805,0.194,0.0746385046113,0.0135,0.1805,0.194,0.0746385046113,0.0135,0.1805,0.194,0.0746385046113
34640000,102.663889951,145.584589983,81.203539935,0.8125,0.184,0.6165,0.01,0.174,0.184,0.0590453817016,0.01,0.174,0.184,0.0590453817016,0.01,0.174,0.184,0.0590453817016,0.01,0.174,0.184,0.0590453817016,0.01,0.174,0.184,0.0590453817016,0.01,0.174,0.184,0.0590453817016
34640000,103.302127887,146.360582387,81.772900637,0.797,0.1895,0.615,0.01,0.181,0.191,0.054743083004,0.01,0.181,0.191,0.054743083004,0.01,0.181,0.191,0.054743083004,0.01,0.181,0.191,0.054743083004,0.01,0.181,0.191,0.054743083004,0.01,0.181,0.191,0.054743083004
34640000,103.902882722,148.791957853,81.4583451569,0.797,0.191,0.589,0.014,0.189,0.203,0.0736283643892,0.014,0.189,0.203,0.0736283643892,0.014,0.189,0.203,0.0736283643892,0.014,0.189,0.203,0.0736283643892,0.014,0.189,0.203,0.0736283643892,0.014,0.189,0.203,0.0736283643892
34640000,105.01157962,149.654179991,82.6902794347,0.8065,0.192,0.619,0.015,0.1835,0.1985,0.0818922924901,0.015,0.1835,0.1985,0.0818922924901,0.015,0.1835,0.1985,0.0818922924901,0.015,0.1835,0.1985,0.0818922924901,0.015,0.1835,0.1985,0.0818922924901,0.015,0.1835,0.1985,0.0818922924901
34640000,105.132399889,145.274826434,85.0611866168,0.711,0.182,0.517,0.012,0.181,0.193,0.0655261857708,0.012,0.181,0.193,0.0655261857708,0.012,0.181,0.193,0.0655261857708,0.012,0.181,0.193,0.0655261857708,0.012,0.181,0.193,0.0655261857708,0.012,0.181,0.193,0.0655261857708
34640000,105.544762244,149.935402756,83.3494419877,0.7505,0.1815,0.5715,0.0235,0.173,0.1965,0.133410973085,0.0235,0.173,0.1965,0.133410973085,0.0235,0.173,0.1965,0.133410973085,0.0235,0.173,0.1965,0.133410973085,0.0235,0.173,0.1965,0.133410973085,0.0235,0.173,0.1965,0.133410973085
34640000,106.192552337,149.057223236,84.7602168875,0.781,0.186,0.5945,0.0185,0.1735,0.192,0.105754233512,0.0185,0.1735,0.192,0.105754233512,0.0185,0.1735,0.192,0.105754233512,0.0185,0.1735,0.192,0.105754233512,0.0185,0.1735,0.192,0.105754233512,0.0185,0.1735,0.192,0.105754233512
34760000,100.659343196,148.421393299,76.7783181443,0.75,0.1765,0.5685,0.0135,0.158,0.1715,0.0824729395954,0.0135,0.158,0.1715,0.0824729395954,0.0135,0.158,0.1715,0.0824729395954,0.0135,0.158,0.1715,0.0824729395954,0.0135,0.158,0.1715,0.0824729395954,0.0135,0.158,0.1715,0.0824729395954
34760000,100.839979034,149.313304849,76.6033161266,0.7435,0.1685,0.5605,0.01,0.1675,0.1775,0.0598011363636,0.01,0.1675,0.1775,0.0598011363636,0.01,0.1675,0.1775,0.0598011363636,0.01,0.1675,0.1775,0.0598011363636,0.01,0.1675,0.1775,0.0598011363636,0.01,0.1675,0.1775,0.0598011363636
34760000,101.245634323,149.530685341,77.1031088138,0.742,0.176,0.5455,0.02,0.1635,0.1835,0.114478441245,0.02,0.1635,0.1835,0.114478441245,0.02,0.1635,0.1835,0.114478441245,0.02,0.1635,0.1835,0.114478441245,0.02,0.1635,0.1835,0.114478441245,0.02,0.1635,0.1835,0.114478441245
34760000,101.472512633,147.803484559,78.3070266703,0.7085,0.1715,0.5345,0.0195,0.1665,0.186,0.11783008658,0.0195,0.1665,0.186,0.11783008658,0.0195,0.1665,0.186,0.11783008658,0.0195,0.1665,0.186,0.11783008658,0.0195,0.1665,0.186,0.11783008658,0.0195,0.1665,0.186,0.11783008658
34760000,101.559957558,149.658881691,77.5104954913,0.745,0.18,0.563,0.0125,0.18,0.1925,0.0699110671937,0.0125,0.18,0.1925,0.0699110671937,0.0125,0.18,0.1925,0.0699110671937,0.0125,0.18,0.1925,0.0699110671937,0.0125,0.18,0.1925,0.0699110671937,0.0125,0.18,0.1925,0.0699110671937
34760000,101.970760989,149.733436621,78.0894231731,0.7325,0.176,0.5545,0.009,0.169,0.178,0.0529891304348,0.009,0.169,0.178,0.0529891304348,0.009,0.169,0.178,0.0529891304348,0.009,0.169,0.178,0.0529891304348,0.009,0.169,0.178,0.0529891304348,0.009,0.169,0.178,0.0529891304348
34760000,102.246538902,149.076923434,78.8313466365,0.718,0.167,0.5545,0.019,0.165,0.184,0.115688131313,0.019,0.165,0.184,0.115688131313,0.019,0.165,0.184,0.115688131313,0.019,0.165,0.184,0.115688131313,0.019,0.165,0.184,0.115688131313,0.019,0.165,0.184,0.115688131313
34760000,102.897924107,144.879308209,81.9072320564,0.7235,0.232,0.5555,0.031,0.2235,0.2545,0.146590909091,0.031,0.2235,0.2545,0.146590909091,0.031,0.2235,0.2545,0.146590909091,0.031,0.2235,0.2545,0.146590909091,0.031,0.2235,0.2545,0.146590909091,0.027,0.2235,0.2505,0.121590909091
34760000,103.387084878,150.300199442,79.9305275958,0.716,0.18,0.5345,0.013,0.176,0.189,0.0730127360562,0.013,0.176,0.189,0.0730127360562,0.013,0.176,0.189,0.0730127360562,0.013,0.176,0.189,0.0730127360562,0.013,0.176,0.189,0.0730127360562,0.013,0.176,0.189,0.0730127360562
34760000,103.907852457,132.565030391,89.5792634899,0.732,0.169,0.449,0.0205,0.1525,0.173,0.134357451114,0.0205,0.1525,0.173,0.134357451114,0.0205,0.1525,0.173,0.134357451114,0.0205,0.1525,0.173,0.134357451114,0.0205,0.1525,0.173,0.134357451114,0.0205,0.1525,0.173,0.134357451114
34760000,104.828098946,149.973842157,82.2552273401,0.7345,0.182,0.5515,0.01,0.1695,0.1795,0.0590026821005,0.01,0.1695,0.1795,0.0590026821005,0.01,0.1695,0.1795,0.0590026821005,0.01,0.1695,0.1795,0.0590026821005,0.01,0.1695,0.1795,0.0590026821005,0.01,0.1695,0.1795,0.0590026821005
34760000,104.939488062,145.270477984,84.7739931014,0.728,0.19,0.518,0.0085,0.1875,0.196,0.0452898550725,0.0085,0.1875,0.196,0.0452898550725,0.0085,0.1875,0.196,0.0452898550725,0.0085,0.1875,0.196,0.0452898550725,0.0085,0.1875,0.196,0.0452898550725,0.0085,0.1875,0.196,0.0452898550725
34760000,105.214532689,150.023504094,82.810046987,0.722,0.175,0.5465,0.017,0.146,0.163,0.110037878788,0.017,0.146,0.163,0.110037878788,0.017,0.146,0.163,0.110037878788,0.017,0.146,0.163,0.110037878788,0.017,0.146,0.163,0.110037878788,0.017,0.146,0.163,0.110037878788
34760000,105.407294738,150.402951037,82.9094665878,0.688,0.183,0.5195,0.017,0.1815,0.1985,0.102311547149,0.017,0.1815,0.1985,0.102311547149,0.017,0.1815,0.1985,0.102311547149,0.017,0.1815,0.1985,0.102311547149,0.017,0.1815,0.1985,0.102311547149,0.017,0.1815,0.1985,0.102311547149
34760000,105.498450046,146.044705979,85.2253220789,0.7305,0.195,0.5195,0.0225,0.186,0.2085,0.122174873737,0.0225,0.186,0.2085,0.122174873737,0.0225,0.186,0.2085,0.122174873737,0.0225,0.186,0.2085,0.122174873737,0.0225,0.186,0.2085,0.122174873737,0.0225,0.186,0.2085,0.122174873737
34760000,105.999970845,149.888748036,84.055582249,0.728,0.172,0.552,0.024,0.172,0.196,0.13961038961,0.024,0.172,0.196,0.13961038961,0.024,0.172,0.196,0.13961038961,0.024,0.172,0.196,0.13961038961,0.024,0.172,0.196,0.13961038961,0.024,0.172,0.196,0.13961038961
34760000,106.254500672,145.125400013,86.8190510021,0.704,0.231,0.4795,0.027,0.23,0.257,0.121681579341,0.027,0.23,0.257,0.121681579341,0.027,0.23,0.257,0.121681579341,0.027,0.23,0.257,0.121681579341,0.027,0.23,0.257,0.121681579341,0.027,0.23,0.257,0.121681579341
34760000,106.377791177,150.453580396,84.339896568,0.707,0.1785,0.528,0.0105,0.178,0.1885,0.0593848718849,0.0105,0.178,0.1885,0.0593848718849,0.0105,0.178,0.1885,0.0593848718849,0.0105,0.178,0.1885,0.0593848718849,0.0105,0.178,0.1885,0.0593848718849,0.0105,0.178,0.1885,0.0593848718849
34760000,106.569457306,146.329967889,86.6892020142,0.7135,0.187,0.4415,0.0185,0.1825,0.201,0.10182891384,0.0185,0.1825,0.201,0.10182891384,0.0185,0.1825,0.201,0.10182891384,0.0185,0.1825,0.201,0.10182891384,0.0185,0.1825,0.201,0.10182891384,0.0185,0.1825,0.201,0.10182891384
34760000,106.579247531,145.484262082,87.1267402558,0.7165,0.2095,0.519,0.01,0.197,0.207,0.0512465795074,0.01,0.197,0.207,0.0512465795074,0.01,0.197,0.207,0.0512465795074,0.01,0.197,0.207,0.0512465795074,0.01,0.197,0.207,0.0512465795074,0.01,0.197,0.207,0.0512465795074
34760000,106.730869407,150.393576923,84.899515649,0.678,0.162,0.5035,0.0185,0.161,0.1795,0.115852130326,0.0185,0.161,0.1795,0.115852130326,0.0185,0.161,0.1795,0.115852130326,0.0185,0.161,0.1795,0.115852130326,0.0185,0.161,0.1795,0.115852130326,0.0185,0.161,0.1795,0.115852130326
34760000,106.802166402,150.209442908,85.0985281495,0.712,0.172,0.5365,0.014,0.163,0.177,0.0870065789474,0.014,0.163,0.177,0.0870065789474,0.014,0.163,0.177,0.0870065789474,0.014,0.163,0.177,0.0870065789474,0.014,0.163,0.177,0.0870065789474,0.014,0.163,0.177,0.0870065789474
34760000,107.05781832,148.22438197,86.4745364949,0.7155,0.196,0.5215,0.02,0.1895,0.2095,0.112919522607,0.02,0.1895,0.2095,0.112919522607,0.02,0.1895,0.2095,0.112919522607,0.02,0.1895,0.2095,0.112919522607,0.02,0.1895,0.2095,0.112919522607,0.02,0.1895,0.2095,0.112919522607
34760000,107.214999044,148.801425115,86.4217860092,0.7285,0.203,0.5315,0.0165,0.2025,0.219,0.082057514245,0.0165,0.2025,0.219,0.082057514245,0.0165,0.2025,0.219,0.082057514245,0.0165,0.2025,0.219,0.082057514245,0.0165,0.2025,0.219,0.082057514245,0.0165,0.2025,0.219,0.082057514245
34760000,107.589882738,150.082847523,86.3434003452,0.7765,0.1735,0.597,0.0155,0.164,0.1795,0.095282270647,0.0155,0.164,0.1795,0.095282270647,0.0155,0.164,0.1795,0.095282270647,0.0155,0.164,0.1795,0.095282270647,0.0155,0.164,0.1795,0.095282270647,0.0155,0.164,0.1795,0.095282270647
34760000,107.766484994,149.255629567,87.0219127068,0.6715,0.1835,0.5035,0.0095,0.1775,0.187,0.0551188500479,0.0095,0.1775,0.187,0.0551188500479,0.0095,0.1775,0.187,0.0551188500479,0.0095,0.1775,0.187,0.0551188500479,0.0095,0.1775,0.187,0.0551188500479,0.0095,0.1775,0.187,0.0551188500479
34760000,107.777295709,150.26092682,86.5354801532,0.7125,0.174,0.537,0.013,0.1645,0.1775,0.083339741399,0.013,0.1645,0.1775,0.083339741399,0.013,0.1645,0.1775,0.083339741399,0.013,0.1645,0.1775,0.083339741399,0.013,0.1645,0.1775,0.083339741399,0.013,0.1645,0.1775,0.083339741399
34760000,108.109392397,148.640318781,87.8439292055,0.72,0.198,0.41,0.0235,0.1835,0.207,0.128395412458,0.0235,0.1835,0.207,0.128395412458,0.0235,0.1835,0.207,0.128395412458,0.0235,0.1835,0.207,0.128395412458,0.0235,0.1835,0.207,0.128395412458,0.0235,0.1835,0.207,0.128395412458
34760000,108.113772113,148.245498476,88.0479089318,0.7055,0.187,0.5015,0.024,0.1785,0.2025,0.140220626294,0.024,0.1785,0.2025,0.140220626294,0.024,0.1785,0.2025,0.140220626294,0.024,0.1785,0.2025,0.140220626294,0.024,0.1785,0.2025,0.140220626294,0.024,0.1785,0.2025,0.140220626294
34760000,108.239125836,150.052053257,87.3326621253,0.765,0.1815,0.586,0.0125,0.1775,0.19,0.0702522115566,0.0125,0.1775,0.19,0.0702522115566,0.0125,0.1775,0.19,0.0702522115566,0.0125,0.1775,0.19,0.0702522115566,0.0125,0.1775,0.19,0.0702522115566,0.0125,0.1775,0.19,0.0702522115566
34760000,108.561967299,150.218483782,87.7337090577,0.7375,0.175,0.5615,0.0175,0.1735,0.191,0.100405844156,0.0175,0.1735,0.191,0.100405844156,0.0175,0.1735,0.191,0.100405844156,0.0175,0.1735,0.191,0.100405844156,0.0175,0.1735,0.191,0.100405844156,0.0175,0.1735,0.191,0.100405844156
34760000,108.726116583,149.756945581,88.2107020835,0.73,0.1965,0.54,0.011,0.195,0.206,0.0567028985507,0.011,0.195,0.206,0.0567028985507,0.011,0.1945,0.2055,0.0569499341238,0.011,0.1945,0.2055,0.0569499341238,0.011,0.1945,0.2055,0.0569499341238,0.011,0.1945,0.2055,0.0569499341238
34760000,108.915803839,150.078712382,88.3343495671,0.7555,0.182,0.5755,0.0185,0.181,0.1995,0.103754940711,0.0185,0.181,0.1995,0.103754940711,0.0185,0.181,0.1995,0.103754940711,0.0185,0.181,0.1995,0.103754940711,0.0185,0.181,0.1995,0.103754940711,0.0185,0.181,0.1995,0.103754940711
34760000,108.923547419,150.126831853,88.3219052014,0.6925,0.1745,0.5155,0.0155,0.1745,0.19,0.0883622717862,0.0155,0.1745,0.19,0.0883622717862,0.0155,0.1745,0.19,0.0883622717862,0.0155,0.1745,0.19,0.0883622717862,0.0155,0.1745,0.19,0.0883622717862,0.0155,0.1745,0.19,0.0883622717862
34760000,109.418974651,149.901368516,89.1777777187,0.7125,0.191,0.524,0.012,0.1735,0.1855,0.067142287537,0.012,0.1735,0.1855,0.067142287537,0.012,0.1735,0.1855,0.067142287537,0.012,0.1735,0.1855,0.067142287537,0.012,0.1735,0.1855,0.067142287537,0.012,0.1735,0.1855,0.067142287537
34760000,109.507663211,150.170456794,89.1762664197,0.7355,0.1725,0.5585,0.008,0.171,0.179,0.0468971341397,0.008,0.171,0.179,0.0468971341397,0.008,0.171,0.179,0.0468971341397,0.008,0.171,0.179,0.0468971341397,0.008,0.171,0.179,0.0468971341397,0.008,0.171,0.179,0.0468971341397
34760000,109.558573255,150.387768519,89.143975623,0.6695,0.18,0.5035,0.016,0.172,0.188,0.0930735930736,0.016,0.172,0.188,0.0930735930736,0.016,0.172,0.188,0.0930735930736,0.016,0.172,0.188,0.0930735930736,0.016,0.172,0.188,0.0930735930736,0.016,0.172,0.188,0.0930735930736
34760000,109.595747941,150.172405137,89.307419343,0.7645,0.1785,0.5845,0.0175,0.1745,0.192,0.0992318370036,0.0175,0.1745,0.192,0.0992318370036,0.0175,0.1745,0.192,0.0992318370036,0.0175,0.1745,0.192,0.0992318370036,0.0175,0.1745,0.192,0.0992318370036,0.0175,0.1745,0.192,0.0992318370036
34760000,110.349770147,149.46785042,90.7907300102,0.666,0.214,0.46,0.0145,0.2135,0.228,0.0682718063187,0.0145,0.2135,0.228,0.0682718063187,0.0145,0.2135,0.228,0.0682718063187,0.0145,0.2135,0.228,0.0682718063187,0.0145,0.2135,0.228,0.0682718063187,0.0145,0.2135,0.228,0.0682718063187
34760000,110.706921786,149.348012639,91.386376359,0.6825,0.215,0.476,0.01,0.2135,0.2235,0.0491079059829,0.01,0.2135,0.2235,0.0491079059829,0.01,0.2135,0.2235,0.0491079059829,0.01,0.2135,0.2235,0.0491079059829,0.01,0.2095,0.2195,0.0500137030844,0.01,0.2095,0.2195,0.0500137030844
34760000,110.906491135,149.604857532,91.5573079364,0.699,0.303,0.5035,0.031,0.2995,0.3305,0.108322723472,0.031,0.2995,0.3305,0.108322723472,0.031,0.299,0.33,0.10843594811,0.031,0.299,0.33,0.10843594811,0.031,0.299,0.33,0.10843594811,0.031,0.299,0.33,0.10843594811
34800000,102.353540522,137.356731031,84.8519452677,0.508,0.216,0.3695,0.0125,0.215,0.2275,0.0581567730958,0.0125,0.203,0.2155,0.0660932810323,0.0125,0.203,0.2155,0.0660932810323,0.0125,0.203,0.2155,0.0660932810323,0.0125,0.203,0.2155,0.0660932810323,0.0125,0.203,0.2155,0.0660932810323
34800000,103.21676848,147.25453979,81.1978828245,0.6825,0.1835,0.503,0.0185,0.1585,0.177,0.118533246207,0.0185,0.1585,0.177,0.118533246207,0.0185,0.1585,0.177,0.118533246207,0.0185,0.1585,0.177,0.118533246207,0.0185,0.1585,0.177,0.118533246207,0.0185,0.1585,0.177,0.118533246207
34800000,104.979452303,147.186188449,83.87608423,0.6565,0.1965,0.439,0.01,0.1835,0.1935,0.053911019536,0.01,0.1835,0.1935,0.053911019536,0.01,0.1835,0.1935,0.053911019536,0.01,0.1835,0.1935,0.053911019536,0.01,0.1835,0.1935,0.053911019536,0.01,0.1835,0.1935,0.053911019536
34800000,105.086512611,149.61680944,82.8213641965,0.6795,0.152,0.497,0.0095,0.1215,0.131,0.0830770944742,0.0095,0.1215,0.131,0.0830770944742,0.0095,0.1215,0.131,0.0830770944742,0.0095,0.1215,0.131,0.0830770944742,0.0095,0.1215,0.131,0.0830770944742,0.0095,0.1215,0.131,0.0830770944742
34800000,106.052468007,148.702244183,84.7275799191,0.6755,0.181,0.4865,0.0215,0.1685,0.19,0.125298436308,0.0215,0.1685,0.19,0.125298436308,0.0215,0.1685,0.19,0.125298436308,0.0215,0.1685,0.19,0.125298436308,0.0215,0.1685,0.19,0.125298436308,0.0215,0.1685,0.19,0.125298436308
34800000,106.403941317,146.693113916,86.2593550182,0.6785,0.2635,0.4435,0.018,0.256,0.274,0.0705409727149,0.01,0.256,0.266,0.0448999470739,0.01,0.256,0.266,0.0448999470739,0.01,0.256,0.266,0.0448999470739,0.01,0.256,0.266,0.0448999470739,0.01,0.256,0.266,0.0448999470739
34800000,107.056829994,149.858113008,85.6561884874,0.6965,0.2105,0.5105,0.011,0.1855,0.1965,0.0635537805483,0.011,0.1855,0.1965,0.0635537805483,0.011,0.1855,0.1965,0.0635537805483,0.011,0.1855,0.1965,0.0635537805483,0.011,0.1855,0.1965,0.0635537805483,0.011,0.1855,0.1965,0.0635537805483
34800000,107.265841383,149.384971005,86.2062765712,0.6505,0.2485,0.4675,0.0125,0.2445,0.257,0.055231017712,0.0125,0.2445,0.257,0.055231017712,0.0125,0.2445,0.257,0.055231017712,0.0125,0.2445,0.257,0.055231017712,0.0125,0.2445,0.257,0.055231017712,0.0125,0.2445,0.257,0.055231017712
34800000,107.483294734,148.533532102,86.9581760496,0.6645,0.212,0.434,0.0245,0.2105,0.235,0.124223022912,0.0245,0.2105,0.235,0.124223022912,0.0245,0.2105,0.235,0.124223022912,0.0245,0.2105,0.235,0.124223022912,0.0245,0.2105,0.235,0.124223022912,0.0245,0.2105,0.235,0.124223022912
34800000,107.765232559,149.394191214,86.9507532314,0.654,0.195,0.3515,0.01,0.1915,0.2015,0.0539778539874,0.01,0.1915,0.2015,0.0539778539874,0.01,0.1915,0.2015,0.0539778539874,0.01,0.1915,0.2015,0.0539778539874,0.01,0.1915,0.2015,0.0539778539874,0.01,0.1915,0.2015,0.0539778539874
34800000,108.299279854,149.840642723,87.52859842,0.647,0.196,0.462,0.009,0.1915,0.2005,0.0469972826087,0.009,0.1915,0.2005,0.0469972826087,0.009,0.1915,0.2005,0.0469972826087,0.009,0.1915,0.2005,0.0469972826087,0.009,0.1915,0.2005,0.0469972826087,0.009,0.1915,0.2005,0.0469972826087
34800000,108.386782517,150.360119213,87.4001141691,0.6425,0.2415,0.437,0.024,0.229,0.253,0.114101406938,0.024,0.229,0.253,0.114101406938,0.024,0.229,0.253,0.114101406938,0.024,0.229,0.253,0.114101406938,0.024,0.223,0.247,0.115229226487,0.024,0.223,0.247,0.115229226487
34840000,91.632048238,128.197023563,73.3495605754,0.686,0.1775,0.5055,0.0165,0.1585,0.175,0.106099828375,0.0165,0.1585,0.175,0.106099828375,0.0165,0.1585,0.175,0.106099828375,0.0165,0.1585,0.175,0.106099828375,0.0165,0.1585,0.175,0.106099828375,0.0165,0.1585,0.175,0.106099828375
34840000,91.9221345539,129.044098596,73.361152533,0.6875,0.1735,0.5135,0.0115,0.1715,0.183,0.0661384810841,0.0115,0.1715,0.183,0.0661384810841,0.0115,0.1715,0.183,0.0661384810841,0.0115,0.1715,0.183,0.0661384810841,0.0115,0.1715,0.183,0.0661384810841,0.0115,0.1715,0.183,0.0661384810841
34840000,92.2333454302,126.318540993,75.1907476486,0.6515,0.2795,0.428,0.0255,0.27,0.2955,0.0875191563553,0.0255,0.27,0.2955,0.0875191563553,0.0255,0.27,0.2955,0.0875191563553,0.0255,0.27,0.2955,0.0875191563553,0.0255,0.266,0.2915,0.0886754930805,0.0255,0.266,0.2915,0.0886754930805
34840000,92.3193206744,131.15880892,72.8995765516,0.682,0.1725,0.5105,0.0255,0.1695,0.195,0.150089712919,0.0255,0.1695,0.195,0.150089712919,0.0255,0.1695,0.195,0.150089712919,0.0255,0.1695,0.195,0.150089712919,0.0255,0.1695,0.195,0.150089712919,0.0255,0.1695,0.195,0.150089712919
34840000,92.4656173707,132.253405851,72.5717231304,0.685,0.1715,0.5145,0.013,0.1615,0.1745,0.0794205182073,0.013,0.1615,0.1745,0.0794205182073,0.013,0.1615,0.1745,0.0794205182073,0.013,0.1615,0.1745,0.0794205182073,0.013,0.1615,0.1745,0.0794205182073,0.013,0.1615,0.1745,0.0794205182073
34840000,93.1266771793,131.904601487,73.7377150255,0.698,0.2165,0.506,0.015,0.2035,0.2185,0.086501646113,0.015,0.2035,0.2185,0.086501646113,0.015,0.2035,0.2185,0.086501646113,0.015,0.2035,0.2185,0.086501646113,0.015,0.2035,0.2185,0.086501646113,0.015,0.2035,0.2185,0.086501646113
34840000,93.7271975575,131.682440782,74.7495759453,0.6775,0.1695,0.501,0.009,0.168,0.177,0.0535714285714,0.009,0.168,0.177,0.0535714285714,0.009,0.168,0.177,0.0535714285714,0.009,0.168,0.177,0.0535714285714,0.009,0.168,0.177,0.0535714285714,0.009,0.168,0.177,0.0535714285714
34840000,93.7338412359,131.639207573,74.7811580671,0.6835,0.1785,0.5085,0.0095,0.1735,0.183,0.054816017316,0.0095,0.1735,0.183,0.054816017316,0.0095,0.1735,0.183,0.054816017316,0.0095,0.1735,0.183,0.054816017316,0.0095,0.1735,0.183,0.054816017316,0.0095,0.1735,0.183,0.054816017316
34840000,93.7835431096,133.967726902,73.6914512132,0.6855,0.175,0.518,0.008,0.1705,0.1785,0.0469426406926,0.008,0.1705,0.1785,0.0469426406926,0.008,0.1705,0.1785,0.0469426406926,0.008,0.1705,0.1785,0.0469426406926,0.008,0.1705,0.1785,0.0469426406926,0.008,0.1705,0.1785,0.0469426406926
34840000,93.8038726022,137.670728411,71.8704446979,0.693,0.174,0.517,0.014,0.1715,0.1855,0.0820296479836,0.014,0.1715,0.1855,0.0820296479836,0.014,0.1715,0.1855,0.0820296479836,0.014,0.1715,0.1855,0.0820296479836,0.014,0.1715,0.1855,0.0820296479836,0.014,0.1715,0.1855,0.0820296479836
34840000,93.8096269359,132.58121528,74.4238327638,0.6795,0.171,0.508,0.016,0.1655,0.1815,0.0960317460317,0.016,0.1655,0.1815,0.0960317460317,0.016,0.1655,0.1815,0.0960317460317,0.016,0.1655,0.1815,0.0960317460317,0.016,0.1655,0.1815,0.0960317460317,0.016,0.1655,0.1815,0.0960317460317
34840000,94.717392683,132.109285273,76.0214463883,0.632,0.176,0.456,0.016,0.16,0.176,0.1,0.016,0.16,0.176,0.1,0.016,0.16,0.176,0.1,0.016,0.16,0.176,0.1,0.016,0.16,0.176,0.1,0.016,0.16,0.176,0.1
34840000,94.766368224,136.145806427,74.0766491224,0.69,0.169,0.5225,0.022,0.1645,0.1865,0.132305194805,0.022,0.1645,0.1865,0.132305194805,0.022,0.1645,0.1865,0.132305194805,0.022,0.1645,0.1865,0.132305194805,0.022,0.1645,0.1865,0.132305194805,0.022,0.1645,0.1865,0.132305194805
34840000,94.8156572028,130.963348465,76.7418115717,0.637,0.1865,0.452,0.0195,0.186,0.2055,0.104640151515,0.0195,0.186,0.2055,0.104640151515,0.0195,0.186,0.2055,0.104640151515,0.0195,0.186,0.2055,0.104640151515,0.0195,0.186,0.2055,0.104640151515,0.0195,0.186,0.2055,0.104640151515
34840000,94.8472112797,133.279237867,75.6311979861,0.6755,0.175,0.5,0.011,0.1705,0.1815,0.0657297269854,0.011,0.1705,0.1815,0.0657297269854,0.011,0.1705,0.1815,0.0657297269854,0.011,0.1705,0.1815,0.0657297269854,0.011,0.1705,0.1815,0.0657297269854,0.011,0.1705,0.1815,0.0657297269854
34840000,94.9573720275,136.895107134,73.9885044743,0.6935,0.171,0.527,0.009,0.1625,0.1715,0.0550698688566,0.009,0.1625,0.1715,0.0550698688566,0.009,0.1625,0.1715,0.0550698688566,0.009,0.1625,0.1715,0.0550698688566,0.009,0.1625,0.1715,0.0550698688566,0.009,0.1625,0.1715,0.0550698688566
34840000,95.1854840398,136.461727937,74.547362091,0.6735,0.17,0.496,0.014,0.164,0.178,0.0863636363636,0.014,0.164,0.178,0.0863636363636,0.014,0.164,0.178,0.0863636363636,0.014,0.164,0.178,0.0863636363636,0.014,0.164,0.178,0.0863636363636,0.014,0.164,0.178,0.0863636363636
34840000,96.4647359744,139.060184213,75.167011855,0.6705,0.173,0.4965,0.0325,0.1685,0.201,0.186812200957,0.0325,0.1685,0.201,0.186812200957,0.0325,0.1685,0.201,0.186812200957,0.0325,0.1685,0.201,0.186812200957,0.0325,0.1685,0.201,0.186812200957,0.0325,0.1685,0.201,0.186812200957
34840000,97.2228695597,138.954846115,76.3568812821,0.6835,0.1715,0.508,0.0175,0.168,0.1855,0.105325577201,0.0175,0.168,0.1855,0.105325577201,0.0175,0.168,0.1855,0.105325577201,0.0175,0.168,0.1855,0.105325577201,0.0175,0.168,0.1855,0.105325577201,0.0175,0.168,0.1855,0.105325577201
34840000,97.3371618468,140.769573555,75.6209559926,0.6975,0.177,0.517,0.022,0.1715,0.1935,0.130864153962,0.022,0.1715,0.1935,0.130864153962,0.022,0.1715,0.1935,0.130864153962,0.022,0.1715,0.1935,0.130864153962,0.022,0.1715,0.1935,0.130864153962,0.022,0.1715,0.1935,0.130864153962
34840000,97.4571019328,134.91691503,78.7271953842,0.6545,0.197,0.4205,0.015,0.1865,0.2015,0.0909877411236,0.015,0.1865,0.2015,0.0909877411236,0.015,0.1865,0.2015,0.0909877411236,0.015,0.1865,0.2015,0.0909877411236,0.015,0.1865,0.2015,0.0909877411236,0.015,0.1865,0.2015,0.0909877411236
34840000,97.4929627147,136.024126647,78.2273807484,0.6595,0.231,0.462,0.018,0.2275,0.2455,0.076046828988,0.018,0.2275,0.2455,0.076046828988,0.018,0.2225,0.2405,0.0781301623213,0.018,0.2225,0.2405,0.0781301623213,0.018,0.2225,0.2405,0.0781301623213,0.018,0.2225,0.2405,0.0781301623213
34840000,97.6678887982,140.569922953,76.2168717208,0.6645,0.1705,0.4865,0.0105,0.146,0.1565,0.070413961039,0.0105,0.146,0.1565,0.070413961039,0.0105,0.146,0.1565,0.070413961039,0.0105,0.146,0.1565,0.070413961039,0.0105,0.146,0.1565,0.070413961039,0.0105,0.146,0.1565,0.070413961039
34840000,98.4567731185,141.278003454,77.0461579509,0.667,0.1735,0.4915,0.0105,0.1735,0.184,0.0608766233766,0.0105,0.1735,0.184,0.0608766233766,0.0105,0.1735,0.184,0.0608766233766,0.0105,0.1735,0.184,0.0608766233766,0.0105,0.1735,0.184,0.0608766233766,0.0105,0.1735,0.184,0.0608766233766
34840000,98.8695298077,137.672089184,79.4682501196,0.622,0.1925,0.4455,0.011,0.1925,0.2035,0.0599231286731,0.011,0.1925,0.2035,0.0599231286731,0.011,0.1925,0.2035,0.0599231286731,0.011,0.1925,0.2035,0.0599231286731,0.011,0.1925,0.2035,0.0599231286731,0.011,0.1925,0.2035,0.0599231286731
34840000,98.8774972418,137.057924876,79.7872834247,0.675,0.2455,0.4605,0.0105,0.236,0.2465,0.0468858582231,0.0105,0.236,0.2465,0.0468858582231,0.0105,0.236,0.2465,0.0468858582231,0.0085,0.236,0.2445,0.0401291014663,0.0085,0.236,0.2445,0.0401291014663,0.0085,0.236,0.2445,0.0401291014663
34840000,98.8915893425,141.502654261,77.586056883,0.6645,0.1755,0.4895,0.0215,0.163,0.1845,0.132954545455,0.0215,0.163,0.1845,0.132954545455,0.0215,0.163,0.1845,0.132954545455,0.0215,0.163,0.1845,0.132954545455,0.0215,0.163,0.1845,0.132954545455,0.0215,0.163,0.1845,0.132954545455
34840000,99.3192336407,144.102338552,76.9276811853,0.666,0.164,0.503,0.018,0.15,0.168,0.122852565069,0.018,0.15,0.168,0.122852565069,0.018,0.15,0.168,0.122852565069,0.018,0.15,0.168,0.122852565069,0.018,0.15,0.168,0.122852565069,0.018,0.15,0.168,0.122852565069
34840000,99.5726977926,140.700841729,79.0086258244,0.668,0.162,0.4705,0.0105,0.159,0.1695,0.0674314043799,0.0105,0.159,0.1695,0.0674314043799,0.0105,0.159,0.1695,0.0674314043799,0.0105,0.159,0.1695,0.0674314043799,0.0105,0.159,0.1695,0.0674314043799,0.0105,0.159,0.1695,0.0674314043799
34840000,99.7273312041,144.235387576,77.473303018,0.6655,0.167,0.4965,0.02,0.165,0.185,0.121527777778,0.02,0.165,0.185,0.121527777778,0.02,0.165,0.185,0.121527777778,0.02,0.165,0.185,0.121527777778,0.02,0.165,0.185,0.121527777778,0.02,0.165,0.185,0.121527777778
34840000,100.092897181,142.803113021,78.7377892609,0.675,0.181,0.4925,0.011,0.176,0.187,0.0656657920085,0.011,0.176,0.187,0.0656657920085,0.011,0.176,0.187,0.0656657920085,0.011,0.176,0.187,0.0656657920085,0.011,0.176,0.187,0.0656657920085,0.011,0.176,0.187,0.0656657920085
34840000,100.155364796,144.634676769,77.9157088086,0.676,0.161,0.511,0.0245,0.1565,0.181,0.158090538847,0.0245,0.1565,0.181,0.158090538847,0.0245,0.1565,0.181,0.158090538847,0.0245,0.1565,0.181,0.158090538847,0.0245,0.1565,0.181,0.158090538847,0.0245,0.1565,0.181,0.158090538847
34840000,100.486289614,143.558179841,78.9503445011,0.6585,0.1615,0.494,0.0195,0.153,0.1725,0.123908255487,0.0195,0.153,0.1725,0.123908255487,0.0195,0.153,0.1725,0.123908255487,0.0195,0.153,0.1725,0.123908255487,0.0195,0.153,0.1725,0.123908255487,0.0195,0.153,0.1725,0.123908255487
34840000,100.576902043,144.256339109,78.7371835102,0.668,0.1755,0.497,0.008,0.173,0.181,0.046546553404,0.008,0.173,0.181,0.046546553404,0.008,0.173,0.181,0.046546553404,0.008,0.173,0.181,0.046546553404,0.008,0.173,0.181,0.046546553404,0.008,0.173,0.181,0.046546553404
34840000,100.699507144,145.626553606,78.2359839134,0.67,0.17,0.502,0.0105,0.166,0.1765,0.0652502468292,0.0105,0.166,0.1765,0.0652502468292,0.0105,0.166,0.1765,0.0652502468292,0.0105,0.166,0.1765,0.0652502468292,0.0105,0.166,0.1765,0.0652502468292,0.0105,0.166,0.1765,0.0652502468292
34840000,101.009302708,145.342140183,78.8428839702,0.663,0.1745,0.492,0.016,0.168,0.184,0.0978298017772,0.016,0.168,0.184,0.0978298017772,0.016,0.168,0.184,0.0978298017772,0.016,0.168,0.184,0.0978298017772,0.016,0.168,0.184,0.0978298017772,0.016,0.168,0.184,0.0978298017772
34840000,101.029796292,145.807978672,78.6407051017,0.66,0.18,0.4875,0.016,0.167,0.183,0.0921015824808,0.016,0.167,0.183,0.0921015824808,0.016,0.167,0.183,0.0921015824808,0.016,0.167,0.183,0.0921015824808,0.016,0.167,0.183,0.0921015824808,0.016,0.167,0.183,0.0921015824808
34840000,101.217419096,145.584361358,79.0339479646,0.682,0.181,0.499,0.0325,0.1785,0.211,0.179458264609,0.0325,0.1785,0.211,0.179458264609,0.0325,0.1785,0.211,0.179458264609,0.0325,0.1785,0.211,0.179458264609,0.0325,0.1785,0.211,0.179458264609,0.0325,0.1785,0.211,0.179458264609
34840000,101.429445409,147.146425674,78.570955277,0.669,0.1675,0.501,0.008,0.1595,0.1675,0.050274122807,0.008,0.1595,0.1675,0.050274122807,0.008,0.1595,0.1675,0.050274122807,0.008,0.1595,0.1675,0.050274122807,0.008,0.1595,0.1675,0.050274122807,0.008,0.1595,0.1675,0.050274122807
34840000,102.487756564,147.50670173,79.978283981,0.668,0.243,0.499,0.0095,0.24,0.2495,0.0425751879699,0.0095,0.24,0.2495,0.0425751879699,0.0095,0.24,0.2495,0.0425751879699,0.0095,0.24,0.2495,0.0425751879699,0.0095,0.24,0.2495,0.0425751879699,0.0095,0.24,0.2495,0.0425751879699
34840000,102.779828938,146.97165452,80.683916147,0.6275,0.166,0.457,0.016,0.163,0.179,0.09811620671,0.014,0.163,0.177,0.08561620671,0.014,0.163,0.177,0.08561620671,0.014,0.163,0.177,0.08561620671,0.014,0.163,0.177,0.08561620671,0.014,0.163,0.177,0.08561620671
34840000,102.805855812,148.410103085,80.0037321758,0.655,0.1605,0.4905,0.009,0.152,0.161,0.059535480859,0.009,0.152,0.161,0.059535480859,0.009,0.152,0.161,0.059535480859,0.009,0.152,0.161,0.059535480859,0.009,0.152,0.161,0.059535480859,0.009,0.152,0.161,0.059535480859
34840000,102.826702428,147.711735978,80.3841856522,0.648,0.1675,0.4805,0.0135,0.164,0.1775,0.0830108359133,0.0135,0.164,0.1775,0.0830108359133,0.0135,0.164,0.1775,0.0830108359133,0.0135,0.164,0.1775,0.0830108359133,0.0135,0.164,0.1775,0.0830108359133,0.0135,0.164,0.1775,0.0830108359133
34840000,103.240274452,147.996845374,80.8619889911,0.697,0.281,0.4715,0.0095,0.264,0.2735,0.0475701160542,0.0095,0.264,0.2735,0.0475701160542,0.0095,0.264,0.2735,0.0475701160542,0.0095,0.264,0.2735,0.0475701160542,0.0095,0.264,0.2735,0.0475701160542,0.0095,0.264,0.2735,0.0475701160542
34840000,103.309070026,147.634473184,81.1463684468,0.6495,0.1595,0.486,0.013,0.158,0.171,0.0822551169591,0.013,0.158,0.171,0.0822551169591,0.013,0.158,0.171,0.0822551169591,0.013,0.158,0.171,0.0822551169591,0.013,0.158,0.171,0.0822551169591,0.013,0.158,0.171,0.0822551169591
34840000,105.524077611,150.191319812,83.1904565109,0.648,0.1665,0.439,0.023,0.151,0.174,0.154451884921,0.023,0.151,0.174,0.154451884921,0.023,0.151,0.174,0.154451884921,0.023,0.151,0.174,0.154451884921,0.023,0.151,0.174,0.154451884921,0.023,0.151,0.174,0.154451884921
34920000,83.6052783747,95.9301724155,77.4428313542,0.762,0.1855,0.5855,0.019,0.1645,0.1835,0.115053392899,0.019,0.1645,0.1835,0.115053392899,0.019,0.1645,0.1835,0.115053392899,0.019,0.1645,0.1835,0.115053392899,0.019,0.1645,0.1835,0.115053392899,0.019,0.1645,0.1835,0.115053392899
34920000,86.6977222523,99.7984985486,80.1473341041,0.7635,0.168,0.5965,0.0185,0.159,0.1775,0.115899122807,0.0185,0.159,0.1775,0.115899122807,0.0185,0.159,0.1775,0.115899122807,0.0185,0.159,0.1775,0.115899122807,0.0185,0.159,0.1775,0.115899122807,0.0185,0.159,0.1775,0.115899122807
34920000,86.9496696336,98.025648911,81.4116799949,0.77,0.172,0.603,0.015,0.165,0.18,0.0902777777778,0.015,0.165,0.18,0.0902777777778,0.015,0.165,0.18,0.0902777777778,0.015,0.165,0.18,0.0902777777778,0.015,0.165,0.18,0.0902777777778,0.015,0.165,0.18,0.0902777777778
34920000,88.2191118579,99.4066625036,82.6253365351,0.744,0.168,0.58,0.01,0.15,0.16,0.0654761904762,0.01,0.15,0.16,0.0654761904762,0.01,0.15,0.16,0.0654761904762,0.01,0.15,0.16,0.0654761904762,0.01,0.15,0.16,0.0654761904762,0.01,0.15,0.16,0.0654761904762
34920000,89.3961543103,101.35942252,83.4145202056,0.7425,0.1645,0.5745,0.0145,0.1555,0.17,0.099209294962,0.0145,0.1555,0.17,0.099209294962,0.0145,0.1555,0.17,0.099209294962,0.0145,0.1555,0.17,0.099209294962,0.0145,0.1555,0.17,0.099209294962,0.0145,0.1555,0.17,0.099209294962
34920000,89.8300701432,102.191217905,83.649496262,0.754,0.166,0.594,0.008,0.1565,0.1645,0.0511695906433,0.008,0.1565,0.1645,0.0511695906433,0.008,0.1565,0.1645,0.0511695906433,0.008,0.1565,0.1645,0.0511695906433,0.008,0.1565,0.1645,0.0511695906433,0.008,0.1565,0.1645,0.0511695906433
34920000,90.4233410963,102.912208696,84.1789072965,0.7545,0.1705,0.5855,0.0165,0.17,0.1865,0.0957251082251,0.0165,0.17,0.1865,0.0957251082251,0.0165,0.17,0.1865,0.0957251082251,0.0165,0.17,0.1865,0.0957251082251,0.0165,0.17,0.1865,0.0957251082251,0.0165,0.17,0.1865,0.0957251082251
34920000,91.4487602806,101.999253669,86.1735135866,0.7315,0.1675,0.5595,0.0295,0.1595,0.189,0.186649863295,0.0295,0.1595,0.189,0.186649863295,0.0295,0.1595,0.189,0.186649863295,0.0295,0.1515,0.181,0.197760974406,0.0295,0.1515,0.181,0.197760974406,0.0295,0.1515,0.181,0.197760974406
34920000,91.7053062005,103.54051646,85.7877010709,0.7405,0.1645,0.5775,0.0385,0.1635,0.202,0.234622778537,0.0365,0.1635,0.2,0.223259142174,0.0365,0.1635,0.2,0.223259142174,0.0365,0.1635,0.2,0.223259142174,0.0365,0.1635,0.2,0.223259142174,0.0365,0.1635,0.2,0.223259142174
34920000,92.244870757,104.552447031,86.0910826201,0.7825,0.216,0.5865,0.015,0.2125,0.2275,0.0785830999066,0.015,0.2125,0.2275,0.0785830999066,0.015,0.2125,0.2275,0.0785830999066,0.015,0.2125,0.2275,0.0785830999066,0.015,0.2125,0.2275,0.0785830999066,0.015,0.2125,0.2275,0.0785830999066
34920000,93.634786317,106.242909129,87.330724911,0.7425,0.1685,0.5325,0.0175,0.155,0.1725,0.113669590643,0.0175,0.155,0.1725,0.113669590643,0.0175,0.155,0.1725,0.113669590643,0.0175,0.155,0.1725,0.113669590643,0.0175,0.155,0.1725,0.113669590643,0.0175,0.155,0.1725,0.113669590643
34960000,89.8911689448,106.861325321,81.4060907569,0.691,0.1675,0.524,0.017,0.159,0.176,0.10590759187,0.017,0.159,0.176,0.10590759187,0.017,0.159,0.176,0.10590759187,0.017,0.159,0.176,0.10590759187,0.017,0.159,0.176,0.10590759187,0.017,0.159,0.176,0.10590759187
34960000,90.3231811903,106.891497673,82.039022949,0.7245,0.182,0.5525,0.026,0.18,0.206,0.144057029927,0.026,0.18,0.206,0.144057029927,0.026,0.18,0.206,0.144057029927,0.026,0.18,0.206,0.144057029927,0.026,0.18,0.206,0.144057029927,0.026,0.18,0.206,0.144057029927
34960000,90.4065442926,106.163618381,82.5280072482,0.692,0.177,0.516,0.013,0.171,0.184,0.076075192923,0.013,0.171,0.184,0.076075192923,0.013,0.171,0.184,0.076075192923,0.013,0.171,0.184,0.076075192923,0.013,0.171,0.184,0.076075192923,0.013,0.171,0.184,0.076075192923
34960000,90.7281934342,109.491138063,81.3467211195,0.742,0.172,0.566,0.014,0.1515,0.1655,0.0902948659528,0.014,0.1515,0.1655,0.0902948659528,0.014,0.1515,0.1655,0.0902948659528,0.014,0.1515,0.1655,0.0902948659528,0.014,0.1515,0.1655,0.0902948659528,0.014,0.1515,0.1655,0.0902948659528
34960000,90.8008477066,107.312646046,82.544948537,0.736,0.175,0.5555,0.01,0.167,0.177,0.0599535268653,0.01,0.167,0.177,0.0599535268653,0.01,0.167,0.177,0.0599535268653,0.01,0.167,0.177,0.0599535268653,0.01,0.167,0.177,0.0599535268653,0.01,0.167,0.177,0.0599535268653
34960000,90.9030985251,111.322866444,80.6932145655,0.7545,0.189,0.57,0.0165,0.187,0.2035,0.0848431775505,0.0165,0.187,0.2035,0.0848431775505,0.0165,0.187,0.2035,0.0848431775505,0.0165,0.187,0.2035,0.0848431775505,0.0165,0.187,0.2035,0.0848431775505,0.0165,0.187,0.2035,0.0848431775505
34960000,93.1542919322,109.18902725,85.1369242735,0.734,0.177,0.557,0.031,0.175,0.206,0.176677489177,0.031,0.175,0.206,0.176677489177,0.031,0.175,0.206,0.176677489177,0.031,0.175,0.206,0.176677489177,0.031,0.175,0.206,0.176677489177,0.031,0.175,0.206,0.176677489177
34960000,93.292886557,106.951304724,86.4636774734,0.7495,0.1745,0.577,0.0135,0.1565,0.17,0.0829114122592,0.0135,0.1565,0.17,0.0829114122592,0.0135,0.1565,0.17,0.0829114122592,0.0135,0.1565,0.17,0.0829114122592,0.0135,0.1565,0.17,0.0829114122592,0.0135,0.1565,0.17,0.0829114122592
34960000,93.3065636851,111.257348028,84.3311715137,0.748,0.184,0.573,0.0155,0.1775,0.193,0.0905261857708,0.0155,0.1775,0.193,0.0905261857708,0.0135,0.1775,0.191,0.0780261857708,0.0135,0.1775,0.191,0.0780261857708,0.0135,0.1775,0.191,0.0780261857708,0.0135,0.1775,0.191,0.0780261857708
34960000,93.714027256,112.612764828,84.2646584699,0.72,0.226,0.5405,0.024,0.215,0.239,0.109946963606,0.024,0.215,0.239,0.109946963606,0.024,0.215,0.239,0.109946963606,0.024,0.215,0.239,0.109946963606,0.024,0.215,0.239,0.109946963606,0.024,0.215,0.239,0.109946963606
34960000,93.8684175882,110.401040302,85.6021062311,0.749,0.2215,0.524,0.013,0.2045,0.2175,0.0687965270611,0.013,0.2045,0.2175,0.0687965270611,0.013,0.2045,0.2175,0.0687965270611,0.013,0.2045,0.2175,0.0687965270611,0.013,0.2045,0.2175,0.0687965270611,0.013,0.2045,0.2175,0.0687965270611
34960000,94.9275964663,113.074748153,85.8540206228,0.7005,0.167,0.528,0.0185,0.153,0.1715,0.114272217104,0.0185,0.153,0.1715,0.114272217104,0.0185,0.153,0.1715,0.114272217104,0.0185,0.153,0.1715,0.114272217104,0.0185,0.153,0.1715,0.114272217104,0.0185,0.153,0.1715,0.114272217104
34960000,95.0354711386,113.042287697,86.0320628593,0.75,0.181,0.572,0.01,0.1785,0.1885,0.0566368057,0.01,0.1785,0.1885,0.0566368057,0.01,0.1785,0.1885,0.0566368057,0.01,0.1785,0.1885,0.0566368057,0.01,0.1785,0.1885,0.0566368057,0.01,0.1785,0.1885,0.0566368057
34960000,95.5279964626,115.717658682,85.433165353,0.7285,0.2035,0.548,0.0195,0.19,0.2095,0.108544939715,0.0195,0.19,0.2095,0.108544939715,0.0195,0.19,0.2095,0.108544939715,0.0195,0.19,0.2095,0.108544939715,0.0195,0.19,0.2095,0.108544939715,0.0195,0.19,0.2095,0.108544939715
34960000,95.9723982869,110.523351846,88.6969215074,0.7375,0.1895,0.5615,0.0085,0.184,0.1925,0.0470638057595,0.0085,0.184,0.1925,0.0470638057595,0.0085,0.184,0.1925,0.0470638057595,0.0085,0.184,0.1925,0.0470638057595,0.0085,0.184,0.1925,0.0470638057595,0.0085,0.184,0.1925,0.0470638057595
34960000,98.0379956671,117.896808198,88.1085894017,0.724,0.1755,0.55,0.009,0.168,0.177,0.0533667419537,0.009,0.168,0.177,0.0533667419537,0.009,0.168,0.177,0.0533667419537,0.009,0.168,0.177,0.0533667419537,0.009,0.168,0.177,0.0533667419537,0.009,0.168,0.177,0.0533667419537
34960000,98.7336325856,118.710455217,88.7452212702,0.7245,0.18,0.55,0.016,0.1745,0.1905,0.0913576555024,0.016,0.1745,0.1905,0.0913576555024,0.016,0.1745,0.1905,0.0913576555024,0.016,0.1745,0.1905,0.0913576555024,0.016,0.1745,0.1905,0.0913576555024,0.016,0.1745,0.1905,0.0913576555024
35000000,101.901290774,125.9278212,89.8880255612,0.662,0.165,0.492,0.014,0.1605,0.1745,0.0882241114149,0.014,0.1605,0.1745,0.0882241114149,0.014,0.1605,0.1745,0.0882241114149,0.014,0.1605,0.1745,0.0882241114149,0.014,0.1605,0.1745,0.0882241114149,0.014,0.1605,0.1745,0.0882241114149
35000000,105.232886921,126.753236117,94.4727123224,0.68,0.171,0.505,0.0105,0.1635,0.174,0.0645989974937,0.0105,0.1635,0.174,0.0645989974937,0.0105,0.1635,0.174,0.0645989974937,0.0105,0.1635,0.174,0.0645989974937,0.0105,0.1635,0.174,0.0645989974937,0.0105,0.1635,0.174,0.0645989974937
35000000,108.033932438,127.694484864,98.2036562253,0.705,0.172,0.4775,0.012,0.1535,0.1655,0.0784539473684,0.012,0.1535,0.1655,0.0784539473684,0.012,0.1535,0.1655,0.0784539473684,0.012,0.1535,0.1655,0.0784539473684,0.012,0.1535,0.1655,0.0784539473684,0.012,0.1535,0.1655,0.0784539473684
35040000,86.5087861609,127.735259778,65.8955493523,0.76,0.352,0.288,0.008,0.352,0.36,0.0227272727273,0.008,0.352,0.36,0.0227272727273,0.008,0.352,0.36,0.0227272727273,0.008,0.352,0.36,0.0227272727273,0.008,0.352,0.36,0.0227272727273,0.008,0.352,0.36,0.0227272727273
35040000,87.1439753574,129.670644391,65.8806408406,0.7505,0.2255,0.4615,0.0195,0.217,0.2365,0.107555554279,0.0195,0.217,0.2365,0.107555554279,0.0195,0.217,0.2365,0.107555554279,0.0195,0.217,0.2365,0.107555554279,0.0195,0.217,0.2365,0.107555554279,0.0195,0.217,0.2365,0.107555554279
35080000,87.4479086394,132.68383524,64.8299453392,0.727,0.185,0.5325,0.0085,0.1785,0.187,0.0481096877157,0.0085,0.1785,0.187,0.0481096877157,0.0085,0.1785,0.187,0.0481096877157,0.0085,0.1785,0.187,0.0481096877157,0.0085,0.1785,0.187,0.0481096877157,0.0085,0.1785,0.187,0.0481096877157
35080000,87.9488833942,137.04277082,63.4019396815,0.808,0.408,0.6,0.008,0.408,0.416,0.0196078431373,0.008,0.408,0.416,0.0196078431373,0.008,0.408,0.416,0.0196078431373,0.008,0.408,0.416,0.0196078431373,0.008,0.408,0.416,0.0196078431373,0.008,0.408,0.416,0.0196078431373
35080000,88.5773859285,137.198518862,64.2668194616,0.771,0.189,0.579,0.029,0.186,0.215,0.154239130435,0.029,0.186,0.215,0.154239130435,0.029,0.186,0.215,0.154239130435,0.029,0.186,0.215,0.154239130435,0.029,0.186,0.215,0.154239130435,0.029,0.186,0.215,0.154239130435
35080000,92.0692437855,140.596668977,67.8055311896,0.7405,0.188,0.5525,0.015,0.1655,0.1805,0.0877041293946,0.015,0.1655,0.1805,0.0877041293946,0.015,0.1655,0.1805,0.0877041293946,0.015,0.1655,0.1805,0.0877041293946,0.015,0.1655,0.1805,0.0877041293946,0.015,0.1655,0.1805,0.0877041293946
35120000,85.2100279084,131.841843465,61.8941201304,0.7805,0.189,0.5895,0.011,0.181,0.192,0.0598511904762,0.011,0.181,0.192,0.0598511904762,0.011,0.181,0.192,0.0598511904762,0.011,0.181,0.192,0.0598511904762,0.011,0.181,0.192,0.0598511904762,0.011,0.181,0.192,0.0598511904762
35120000,85.4767376734,133.713964991,61.3581240144,0.8015,0.1935,0.6045,0.0285,0.1915,0.22,0.148541666667,0.0285,0.1915,0.22,0.148541666667,0.0285,0.1915,0.22,0.148541666667,0.0285,0.1915,0.22,0.148541666667,0.0285,0.1915,0.22,0.148541666667,0.0285,0.1915,0.22,0.148541666667
35120000,86.1362047288,133.703029346,62.3527924201,0.773,0.1875,0.579,0.015,0.1835,0.1985,0.0813629305477,0.015,0.1835,0.1985,0.0813629305477,0.015,0.1835,0.1985,0.0813629305477,0.015,0.1835,0.1985,0.0813629305477,0.015,0.1835,0.1985,0.0813629305477,0.015,0.1835,0.1985,0.0813629305477
35120000,86.8001307127,135.725200798,62.3375956703,0.7825,0.193,0.5945,0.0095,0.1915,0.201,0.050331027668,0.0095,0.1915,0.201,0.050331027668,0.0095,0.1915,0.201,0.050331027668,0.0095,0.1915,0.201,0.050331027668,0.0095,0.1915,0.201,0.050331027668,0.0095,0.1915,0.201,0.050331027668
35120000,87.1088181085,134.719528548,63.3034628888,0.7805,0.1935,0.5835,0.0145,0.185,0.1995,0.0840130216846,0.0145,0.185,0.1995,0.0840130216846,0.014,0.185,0.199,0.0810368312085,0.014,0.185,0.199,0.0810368312085,0.014,0.185,0.199,0.0810368312085,0.014,0.185,0.199,0.0810368312085
35120000,87.2478232846,134.118622943,63.8124234556,0.7925,0.1905,0.5975,0.012,0.19,0.202,0.0625724637681,0.012,0.19,0.202,0.0625724637681,0.012,0.19,0.202,0.0625724637681,0.012,0.19,0.202,0.0625724637681,0.012,0.19,0.202,0.0625724637681,0.012,0.19,0.202,0.0625724637681
35120000,88.2018384793,136.833058033,63.8862287026,0.7905,0.197,0.5915,0.008,0.1825,0.1905,0.0439640974967,0.008,0.1825,0.1905,0.0439640974967,0.008,0.1825,0.1905,0.0439640974967,0.008,0.1825,0.1905,0.0439640974967,0.008,0.1825,0.1905,0.0439640974967,0.008,0.1825,0.1905,0.0439640974967
35120000,88.4215262308,137.90452236,63.6800281662,0.7735,0.1935,0.5775,0.015,0.1815,0.1965,0.0815789473684,0.015,0.1815,0.1965,0.0815789473684,0.015,0.1815,0.1965,0.0815789473684,0.015,0.1815,0.1965,0.0815789473684,0.015,0.1815,0.1965,0.0815789473684,0.015,0.1815,0.1965,0.0815789473684
35120000,88.9464304745,136.831120513,65.0040854554,0.78,0.2,0.579,0.009,0.1985,0.2075,0.0466485507246,0.009,0.1985,0.2075,0.0466485507246,0.009,0.1985,0.2075,0.0466485507246,0.009,0.1985,0.2075,0.0466485507246,0.009,0.1985,0.2075,0.0466485507246,0.009,0.1985,0.2075,0.0466485507246
35120000,88.9739642838,138.006291365,64.4578007432,0.7815,0.194,0.5865,0.016,0.1855,0.2015,0.0832571640316,0.016,0.1855,0.2015,0.0832571640316,0.016,0.1855,0.2015,0.0832571640316,0.016,0.1855,0.2015,0.0832571640316,0.016,0.1855,0.2015,0.0832571640316,0.016,0.1855,0.2015,0.0832571640316
35120000,89.0281589311,138.07189177,64.5062925116,0.7895,0.193,0.597,0.0195,0.181,0.2005,0.107482531056,0.0185,0.181,0.1995,0.102047748447,0.0185,0.181,0.1995,0.102047748447,0.0185,0.181,0.1995,0.102047748447,0.0185,0.181,0.1995,0.102047748447,0.0185,0.181,0.1995,0.102047748447
35120000,89.3126236332,137.190947434,65.3734617327,0.7695,0.199,0.575,0.0235,0.197,0.2205,0.118410973085,0.0235,0.197,0.2205,0.118410973085,0.0235,0.197,0.2205,0.118410973085,0.0235,0.197,0.2205,0.118410973085,0.0235,0.197,0.2205,0.118410973085,0.0235,0.197,0.2205,0.118410973085
35120000,89.3518573789,138.801566695,64.627002721,0.783,0.195,0.5945,0.0135,0.1815,0.195,0.0748123706004,0.0135,0.1815,0.195,0.0748123706004,0.0135,0.1815,0.195,0.0748123706004,0.0135,0.1815,0.195,0.0748123706004,0.0135,0.1815,0.195,0.0748123706004,0.0135,0.1815,0.195,0.0748123706004
35120000,89.5737779643,138.536743279,65.0922953068,0.785,0.1905,0.598,0.028,0.1905,0.2185,0.149841485507,0.028,0.1905,0.2185,0.149841485507,0.028,0.1905,0.2185,0.149841485507,0.028,0.1905,0.2185,0.149841485507,0.028,0.1905,0.2185,0.149841485507,0.028,0.1905,0.2185,0.149841485507
35120000,89.7593526524,137.516344028,65.8808569644,0.7735,0.1875,0.5855,0.025,0.186,0.211,0.132365424431,0.025,0.186,0.211,0.132365424431,0.025,0.186,0.211,0.132365424431,0.024,0.186,0.21,0.127365424431,0.024,0.186,0.21,0.127365424431,0.024,0.186,0.21,0.127365424431
35120000,89.8003831134,139.391079477,65.0050349318,0.772,0.197,0.575,0.0175,0.1855,0.203,0.0942300724638,0.0175,0.1855,0.203,0.0942300724638,0.0175,0.1855,0.203,0.0942300724638,0.0175,0.1855,0.203,0.0942300724638,0.0175,0.1855,0.203,0.0942300724638,0.0175,0.1855,0.203,0.0942300724638
35120000,89.8719067834,140.130227611,64.7427463698,0.786,0.1845,0.6045,0.0275,0.1815,0.209,0.148154012749,0.0275,0.1815,0.209,0.148154012749,0.0275,0.1815,0.209,0.148154012749,0.0275,0.1815,0.209,0.148154012749,0.0275,0.1815,0.209,0.148154012749,0.0275,0.1815,0.209,0.148154012749
35120000,89.925134678,139.431887014,65.17175851,0.763,0.1905,0.5665,0.014,0.1805,0.1945,0.0771397397892,0.014,0.1805,0.1945,0.0771397397892,0.014,0.1805,0.1945,0.0771397397892,0.014,0.1805,0.1945,0.0771397397892,0.014,0.1805,0.1945,0.0771397397892,0.014,0.1805,0.1945,0.0771397397892
35120000,90.0310432397,138.476828392,65.8081506636,0.771,0.1885,0.5795,0.037,0.169,0.206,0.227991718427,0.037,0.169,0.206,0.227991718427,0.037,0.169,0.206,0.227991718427,0.037,0.169,0.206,0.227991718427,0.037,0.169,0.206,0.227991718427,0.037,0.169,0.206,0.227991718427
35120000,90.1210612596,138.939330776,65.7119265013,0.74,0.188,0.4565,0.01,0.1835,0.1935,0.0545899209486,0.01,0.1835,0.1935,0.0545899209486,0.01,0.1835,0.1935,0.0545899209486,0.01,0.1835,0.1935,0.0545899209486,0.01,0.1835,0.1935,0.0545899209486,0.01,0.1835,0.1935,0.0545899209486
35120000,91.0187847896,140.563678477,66.2463379457,0.743,0.192,0.55,0.0245,0.1765,0.201,0.135327278795,0.0245,0.1765,0.201,0.135327278795,0.0245,0.1765,0.201,0.135327278795,0.0245,0.1765,0.201,0.135327278795,0.0245,0.1765,0.201,0.135327278795,0.0245,0.1765,0.201,0.135327278795
35120000,91.4389048957,142.041888658,66.1374130144,0.7835,0.1835,0.6005,0.01,0.1655,0.1755,0.0598318045754,0.01,0.1655,0.1755,0.0598318045754,0.01,0.1655,0.1755,0.0598318045754,0.01,0.1655,0.1755,0.0598318045754,0.01,0.1655,0.1755,0.0598318045754,0.01,0.1655,0.1755,0.0598318045754
35120000,91.4940439915,141.929627069,66.2762524525,0.7765,0.232,0.5755,0.03,0.228,0.258,0.13787985709,0.03,0.228,0.258,0.13787985709,0.03,0.228,0.258,0.13787985709,0.03,0.228,0.258,0.13787985709,0.03,0.228,0.258,0.13787985709,0.03,0.228,0.258,0.13787985709
35120000,91.5234000178,142.272906963,66.1486465451,0.7805,0.187,0.589,0.016,0.167,0.183,0.0984151785714,0.016,0.167,0.183,0.0984151785714,0.016,0.167,0.183,0.0984151785714,0.016,0.167,0.183,0.0984151785714,0.016,0.167,0.183,0.0984151785714,0.016,0.167,0.183,0.0984151785714
35120000,91.6741613951,142.409449176,66.3065175047,0.7765,0.1905,0.585,0.0185,0.1865,0.205,0.0982386363636,0.0185,0.1865,0.205,0.0982386363636,0.0185,0.1865,0.205,0.0982386363636,0.0185,0.1865,0.205,0.0982386363636,0.0185,0.1865,0.205,0.0982386363636,0.0185,0.1865,0.205,0.0982386363636
35120000,92.2999431511,142.532622391,67.1836035313,0.7745,0.2205,0.5185,0.009,0.2205,0.2295,0.0421888148668,0.009,0.2205,0.2295,0.0421888148668,0.009,0.2205,0.2295,0.0421888148668,0.009,0.2205,0.2295,0.0421888148668,0.009,0.2205,0.2295,0.0421888148668,0.009,0.2205,0.2295,0.0421888148668
35120000,92.6662785566,143.689166783,67.1548344435,0.769,0.1845,0.5805,0.012,0.1715,0.1835,0.0689664502165,0.012,0.171,0.183,0.0694128787879,0.012,0.171,0.183,0.0694128787879,0.012,0.171,0.183,0.0694128787879,0.012,0.171,0.183,0.0694128787879,0.012,0.171,0.183,0.0694128787879
35120000,92.6938164961,144.182110845,66.9496693217,0.784,0.27,0.576,0.0105,0.251,0.2615,0.0466293238994,0.0105,0.251,0.2615,0.0466293238994,0.0105,0.251,0.2615,0.0466293238994,0.0105,0.251,0.2615,0.0466293238994,0.0105,0.251,0.2615,0.0466293238994,0.0105,0.251,0.2615,0.0466293238994
35120000,92.8409975344,145.321107329,66.6009426371,0.802,0.1835,0.6145,0.0205,0.18,0.2005,0.11351284585,0.0205,0.18,0.2005,0.11351284585,0.0205,0.18,0.2005,0.11351284585,0.0205,0.18,0.2005,0.11351284585,0.0205,0.18,0.2005,0.11351284585,0.0205,0.18,0.2005,0.11351284585
35120000,93.1382292391,144.556797985,67.4289448661,0.776,0.287,0.5355,0.01,0.2835,0.2935,0.0442708333333,0.01,0.2835,0.2935,0.0442708333333,0.01,0.2835,0.2935,0.0442708333333,0.01,0.2835,0.2935,0.0442708333333,0.01,0.2835,0.2935,0.0442708333333,0.01,0.2835,0.2935,0.0442708333333
35120000,93.2079165117,143.683619894,67.9700648205,0.77,0.1925,0.5735,0.008,0.188,0.196,0.0427878552607,0.008,0.188,0.196,0.0427878552607,0.008,0.188,0.196,0.0427878552607,0.008,0.188,0.196,0.0427878552607,0.008,0.188,0.196,0.0427878552607,0.008,0.188,0.196,0.0427878552607
35120000,93.2844120715,140.520085125,69.6665755447,0.7055,0.1865,0.5105,0.017,0.1815,0.1985,0.0928532608696,0.017,0.1815,0.1985,0.0928532608696,0.017,0.1815,0.1985,0.0928532608696,0.017,0.1815,0.1985,0.0928532608696,0.017,0.1815,0.1985,0.0928532608696,0.017,0.1815,0.1985,0.0928532608696
35120000,93.360564689,142.827180613,68.627256727,0.7665,0.1915,0.575,0.026,0.1845,0.2105,0.144422348485,0.026,0.1845,0.2105,0.144422348485,0.026,0.1845,0.2105,0.144422348485,0.026,0.1845,0.2105,0.144422348485,0.026,0.1845,0.2105,0.144422348485,0.026,0.1845,0.2105,0.144422348485
35120000,93.4294551482,145.510833477,67.3887659836,0.784,0.1935,0.605,0.02,0.1905,0.2105,0.111232913373,0.02,0.1905,0.2105,0.111232913373,0.02,0.1905,0.2105,0.111232913373,0.02,0.1845,0.2045,0.118409946866,0.02,0.1845,0.2045,0.118409946866,0.02,0.1845,0.2045,0.118409946866
35120000,93.4489192235,145.920059123,67.2133492739,0.771,0.191,0.593,0.009,0.185,0.194,0.0499301046176,0.009,0.185,0.194,0.0499301046176,0.009,0.185,0.194,0.0499301046176,0.009,0.185,0.194,0.0499301046176,0.009,0.185,0.194,0.0499301046176,0.009,0.185,0.194,0.0499301046176
35120000,93.495832188,144.90759741,67.7899495771,0.754,0.177,0.5735,0.029,0.1695,0.1985,0.166492286794,0.029,0.1695,0.1985,0.166492286794,0.029,0.1695,0.1985,0.166492286794,0.029,0.1695,0.1985,0.166492286794,0.029,0.1695,0.1985,0.166492286794,0.029,0.1695,0.1985,0.166492286794
35120000,93.827085692,145.673018423,67.9041193263,0.779,0.1875,0.5935,0.0085,0.185,0.1935,0.0457978911926,0.0085,0.185,0.1935,0.0457978911926,0.0085,0.185,0.1935,0.0457978911926,0.0085,0.185,0.1935,0.0457978911926,0.0085,0.185,0.1935,0.0457978911926,0.0085,0.185,0.1935,0.0457978911926
35120000,93.936643636,146.24171952,67.7841056938,0.798,0.174,0.6145,0.01,0.161,0.171,0.0610489910547,0.01,0.161,0.171,0.0610489910547,0.01,0.161,0.171,0.0610489910547,0.01,0.161,0.171,0.0610489910547,0.01,0.161,0.171,0.0610489910547,0.01,0.161,0.171,0.0610489910547
35120000,94.0655436021,145.715918076,68.2403563652,0.77,0.1775,0.545,0.0105,0.1715,0.182,0.0634394936204,0.0105,0.1715,0.182,0.0634394936204,0.0105,0.1715,0.182,0.0634394936204,0.0105,0.1715,0.182,0.0634394936204,0.0105,0.1715,0.182,0.0634394936204,0.0105,0.1715,0.182,0.0634394936204
35120000,94.2604788352,146.011749862,68.3848433216,0.737,0.175,0.56,0.0145,0.173,0.1875,0.084798136646,0.0145,0.173,0.1875,0.084798136646,0.0145,0.173,0.1875,0.084798136646,0.0145,0.173,0.1875,0.084798136646,0.0145,0.173,0.1875,0.084798136646,0.0145,0.173,0.1875,0.084798136646
35120000,94.3797263936,145.484514923,68.8273321288,0.752,0.232,0.56,0.008,0.224,0.232,0.0357142857143,0.008,0.224,0.232,0.0357142857143,0.008,0.224,0.232,0.0357142857143,0.008,0.224,0.232,0.0357142857143,0.008,0.224,0.232,0.0357142857143,0.008,0.224,0.232,0.0357142857143
35120000,94.4765024659,146.554825831,68.4373407834,0.7575,0.1945,0.565,0.0175,0.186,0.2035,0.0946846179183,0.0175,0.186,0.2035,0.0946846179183,0.0175,0.186,0.2035,0.0946846179183,0.0175,0.186,0.2035,0.0946846179183,0.0175,0.186,0.2035,0.0946846179183,0.0175,0.186,0.2035,0.0946846179183
35120000,94.8199288869,147.281065378,68.5893606414,0.754,0.1925,0.5655,0.011,0.188,0.199,0.058906455863,0.011,0.188,0.199,0.058906455863,0.011,0.188,0.199,0.058906455863,0.011,0.188,0.199,0.058906455863,0.011,0.188,0.199,0.058906455863,0.011,0.188,0.199,0.058906455863
35120000,94.9802373468,146.567158983,69.1867765287,0.746,0.189,0.553,0.0185,0.1885,0.207,0.098299571805,0.0185,0.1885,0.207,0.098299571805,0.0185,0.1885,0.207,0.098299571805,0.0185,0.1885,0.207,0.098299571805,0.0185,0.1885,0.207,0.098299571805,0.0185,0.1885,0.207,0.098299571805
35120000,95.0044146644,147.836219009,68.588512492,0.773,0.183,0.5945,0.015,0.1795,0.1945,0.0839200428195,0.015,0.1795,0.1945,0.0839200428195,0.015,0.1795,0.1945,0.0839200428195,0.015,0.1795,0.1945,0.0839200428195,0.015,0.1795,0.1945,0.0839200428195,0.015,0.1795,0.1945,0.0839200428195
35120000,95.0558028439,142.933513683,71.1169474243,0.703,0.196,0.5145,0.021,0.194,0.215,0.103014748939,0.021,0.194,0.215,0.103014748939,0.021,0.194,0.215,0.103014748939,0.021,0.194,0.215,0.103014748939,0.021,0.194,0.215,0.103014748939,0.021,0.194,0.215,0.103014748939
35120000,95.1370808201,147.511476157,68.9498831515,0.751,0.18,0.561,0.0145,0.172,0.1865,0.0829599938582,0.0135,0.172,0.1855,0.0775252112495,0.0135,0.172,0.1855,0.0775252112495,0.0135,0.172,0.1855,0.0775252112495,0.0135,0.172,0.1855,0.0775252112495,0.0135,0.172,0.1855,0.0775252112495
35120000,95.1648685463,147.458115919,69.0182448597,0.7305,0.193,0.534,0.012,0.181,0.193,0.0659937888199,0.012,0.181,0.193,0.0659937888199,0.012,0.181,0.193,0.0659937888199,0.012,0.18,0.192,0.0663070720279,0.012,0.18,0.192,0.0663070720279,0.012,0.18,0.192,0.0663070720279
35120000,95.1709282176,145.789850717,69.8614669681,0.763,0.1795,0.5825,0.0295,0.1735,0.203,0.171201533973,0.0295,0.1735,0.203,0.171201533973,0.0295,0.1735,0.203,0.171201533973,0.0295,0.1735,0.203,0.171201533973,0.0295,0.1735,0.203,0.171201533973,0.0295,0.1735,0.203,0.171201533973
35120000,95.2024143204,146.461920632,69.5726611647,0.749,0.1795,0.541,0.009,0.175,0.184,0.0516892527762,0.009,0.174,0.183,0.0519480519481,0.009,0.174,0.183,0.0519480519481,0.009,0.174,0.183,0.0519480519481,0.009,0.174,0.183,0.0519480519481,0.009,0.174,0.183,0.0519480519481
35120000,95.3530362917,147.902690959,69.0782089578,0.7685,0.1995,0.582,0.0085,0.187,0.1955,0.0469375431332,0.0085,0.187,0.1955,0.0469375431332,0.0085,0.187,0.1955,0.0469375431332,0.0085,0.187,0.1955,0.0469375431332,0.0085,0.187,0.1955,0.0469375431332,0.0085,0.187,0.1955,0.0469375431332
35120000,95.6279731345,147.152773693,69.8655728553,0.76,0.1925,0.57,0.028,0.1685,0.1965,0.164108470906,0.028,0.1685,0.1965,0.164108470906,0.028,0.1685,0.1965,0.164108470906,0.028,0.1685,0.1965,0.164108470906,0.028,0.1685,0.1965,0.164108470906,0.028,0.1685,0.1965,0.164108470906
35120000,96.3100268871,147.171365306,70.8793576779,0.739,0.183,0.551,0.0315,0.1815,0.213,0.176156949934,0.0315,0.1815,0.213,0.176156949934,0.0315,0.1815,0.213,0.176156949934,0.0315,0.1815,0.213,0.176156949934,0.0315,0.1815,0.213,0.176156949934,0.0315,0.1815,0.213,0.176156949934
35120000,96.4420673617,148.605778468,70.3602118086,0.759,0.19,0.5755,0.0185,0.189,0.2075,0.0994336346199,0.0185,0.189,0.2075,0.0994336346199,0.0185,0.189,0.2075,0.0994336346199,0.0185,0.189,0.2075,0.0994336346199,0.0185,0.189,0.2075,0.0994336346199,0.0185,0.189,0.2075,0.0994336346199
35120000,97.4259659664,148.55204863,71.8629246346,0.74,0.1815,0.5595,0.0135,0.1755,0.189,0.0774564158667,0.0135,0.1755,0.189,0.0774564158667,0.0135,0.1755,0.189,0.0774564158667,0.0135,0.1755,0.189,0.0774564158667,0.0135,0.1755,0.189,0.0774564158667,0.0135,0.1755,0.189,0.0774564158667
35120000,97.5080422267,150.0835193,71.2203036903,0.755,0.1835,0.5715,0.013,0.174,0.187,0.0748078199451,0.013,0.174,0.187,0.0748078199451,0.013,0.174,0.187,0.0748078199451,0.013,0.174,0.187,0.0748078199451,0.013,0.174,0.187,0.0748078199451,0.013,0.174,0.187,0.0748078199451
35120000,98.1233655463,150.276654178,72.0467212303,0.7445,0.1795,0.5725,0.025,0.1665,0.1915,0.148833396995,0.024,0.1665,0.1905,0.142881016043,0.024,0.1665,0.1905,0.142881016043,0.024,0.1665,0.1905,0.142881016043,0.024,0.1665,0.1905,0.142881016043,0.024,0.1665,0.1905,0.142881016043
35200000,83.7329018645,128.437463033,61.38062128,0.6585,0.1965,0.484,0.016,0.1965,0.2125,0.0811730072464,0.016,0.1965,0.2125,0.0811730072464,0.016,0.1965,0.2125,0.0811730072464,0.016,0.1965,0.2125,0.0811730072464,0.016,0.1965,0.2125,0.0811730072464,0.016,0.1965,0.2125,0.0811730072464
35200000,88.3345827153,138.961908991,63.0209195775,0.819,0.2035,0.618,0.0185,0.1945,0.213,0.0936458333333,0.0185,0.1945,0.213,0.0936458333333,0.0185,0.1945,0.213,0.0936458333333,0.0185,0.1945,0.213,0.0936458333333,0.0185,0.1945,0.213,0.0936458333333,0.0185,0.1945,0.213,0.0936458333333
35200000,89.1639858356,137.877997187,64.80698016,0.7835,0.197,0.588,0.016,0.1855,0.2015,0.0860037878788,0.012,0.1855,0.1975,0.0660037878788,0.012,0.1855,0.1975,0.0660037878788,0.012,0.1855,0.1975,0.0660037878788,0.012,0.1855,0.1975,0.0660037878788,0.012,0.1855,0.1975,0.0660037878788
35200000,89.4903219665,138.496256711,64.987354594,0.766,0.192,0.568,0.012,0.19,0.202,0.0631196581197,0.012,0.19,0.202,0.0631196581197,0.012,0.19,0.202,0.0631196581197,0.012,0.19,0.202,0.0631196581197,0.012,0.19,0.202,0.0631196581197,0.012,0.19,0.202,0.0631196581197
35200000,90.7989263379,139.937291471,66.2297437713,0.7685,0.193,0.5715,0.01,0.191,0.201,0.0527626811594,0.01,0.191,0.201,0.0527626811594,0.01,0.191,0.201,0.0527626811594,0.01,0.191,0.201,0.0527626811594,0.01,0.191,0.201,0.0527626811594,0.01,0.191,0.201,0.0527626811594
35200000,91.7486917184,143.611135151,65.817470002,0.8215,0.194,0.624,0.018,0.1875,0.2055,0.0942379540749,0.018,0.1875,0.2055,0.0942379540749,0.018,0.1875,0.2055,0.0942379540749,0.018,0.1875,0.2055,0.0942379540749,0.018,0.1875,0.2055,0.0942379540749,0.018,0.1875,0.2055,0.0942379540749
35200000,91.7501679271,139.534845564,67.8578291088,0.727,0.188,0.5315,0.011,0.184,0.195,0.0680357142857,0.011,0.184,0.195,0.0680357142857,0.011,0.184,0.195,0.0680357142857,0.011,0.184,0.195,0.0680357142857,0.011,0.184,0.195,0.0680357142857,0.011,0.184,0.195,0.0680357142857
35200000,91.8296442841,143.667833774,65.910549539,0.807,0.197,0.605,0.0255,0.1965,0.222,0.131891025641,0.0255,0.1965,0.222,0.131891025641,0.0255,0.1965,0.222,0.131891025641,0.0255,0.1965,0.222,0.131891025641,0.0255,0.1965,0.222,0.131891025641,0.0255,0.1965,0.222,0.131891025641
35200000,92.0062169244,141.968009345,67.0253207142,0.7685,0.2,0.57,0.0145,0.193,0.2075,0.0754089026915,0.0145,0.193,0.2075,0.0754089026915,0.0145,0.193,0.2075,0.0754089026915,0.0145,0.193,0.2075,0.0754089026915,0.0145,0.193,0.2075,0.0754089026915,0.0145,0.193,0.2075,0.0754089026915
35200000,92.6295157099,145.051316894,66.4186151179,0.797,0.198,0.6035,0.0135,0.1945,0.208,0.0699201839827,0.0135,0.1945,0.208,0.0699201839827,0.0135,0.1945,0.208,0.0699201839827,0.0135,0.1945,0.208,0.0699201839827,0.0135,0.1945,0.208,0.0699201839827,0.0135,0.1945,0.208,0.0699201839827
35200000,92.8792195228,142.485053694,68.0763024372,0.764,0.201,0.5635,0.009,0.201,0.21,0.0446153846154,0.009,0.201,0.21,0.0446153846154,0.009,0.201,0.21,0.0446153846154,0.009,0.201,0.21,0.0446153846154,0.009,0.201,0.21,0.0446153846154,0.009,0.201,0.21,0.0446153846154
35200000,93.3387574979,145.803183704,67.106544395,0.7985,0.2005,0.594,0.018,0.1935,0.2115,0.09081002331,0.018,0.1935,0.2115,0.09081002331,0.018,0.1935,0.2115,0.09081002331,0.018,0.1935,0.2115,0.09081002331,0.018,0.1935,0.2115,0.09081002331,0.018,0.1935,0.2115,0.09081002331
35200000,93.8633816645,145.088357618,68.2508936876,0.7945,0.203,0.596,0.018,0.1945,0.2125,0.0929302536232,0.018,0.1945,0.2125,0.0929302536232,0.018,0.1945,0.2125,0.0929302536232,0.018,0.1945,0.2125,0.0929302536232,0.018,0.1945,0.2125,0.0929302536232,0.018,0.1945,0.2125,0.0929302536232
35200000,93.9067711094,145.406530432,68.156891448,0.67,0.1975,0.513,0.014,0.183,0.197,0.0774323902642,0.014,0.183,0.197,0.0774323902642,0.014,0.183,0.197,0.0774323902642,0.014,0.183,0.197,0.0774323902642,0.014,0.183,0.197,0.0774323902642,0.014,0.183,0.197,0.0774323902642
35200000,94.0411245792,144.519506819,68.8019334596,0.765,0.206,0.5045,0.0205,0.199,0.2195,0.0987913359788,0.0205,0.199,0.2195,0.0987913359788,0.0205,0.199,0.2195,0.0987913359788,0.0205,0.199,0.2195,0.0987913359788,0.0205,0.199,0.2195,0.0987913359788,0.0205,0.199,0.2195,0.0987913359788
35200000,94.1466407575,137.615594862,72.4121637053,0.6905,0.1965,0.497,0.021,0.189,0.21,0.10957619675,0.021,0.189,0.21,0.10957619675,0.021,0.189,0.21,0.10957619675,0.021,0.189,0.21,0.10957619675,0.021,0.189,0.21,0.10957619675,0.021,0.189,0.21,0.10957619675
35200000,94.177655902,144.764457115,68.8842552954,0.76,0.203,0.566,0.024,0.199,0.223,0.124040889666,0.024,0.199,0.223,0.124040889666,0.024,0.199,0.223,0.124040889666,0.024,0.199,0.223,0.124040889666,0.024,0.199,0.223,0.124040889666,0.024,0.199,0.223,0.124040889666
35200000,94.3315284972,145.180909492,68.9068379996,0.7505,0.203,0.5485,0.017,0.2005,0.2175,0.0841601107226,0.017,0.2005,0.2175,0.0841601107226,0.017,0.2005,0.2175,0.0841601107226,0.017,0.2005,0.2175,0.0841601107226,0.017,0.2005,0.2175,0.0841601107226,0.017,0.2005,0.2175,0.0841601107226
35200000,94.5828858745,144.331193982,69.708731821,0.7625,0.201,0.5675,0.0145,0.192,0.2065,0.075652173913,0.0145,0.192,0.2065,0.075652173913,0.0145,0.192,0.2065,0.075652173913,0.0145,0.192,0.2065,0.075652173913,0.0145,0.192,0.2065,0.075652173913,0.0145,0.192,0.2065,0.075652173913
35200000,95.0480527336,144.864284878,70.1399366613,0.7405,0.199,0.5455,0.0125,0.1885,0.201,0.0654655870445,0.0125,0.1885,0.201,0.0654655870445,0.0125,0.1885,0.201,0.0654655870445,0.0125,0.1885,0.201,0.0654655870445,0.0125,0.1885,0.201,0.0654655870445,0.0125,0.1885,0.201,0.0654655870445
35200000,95.5473624488,147.841286363,69.4004004918,0.7675,0.189,0.5705,0.0105,0.1845,0.195,0.0579305771222,0.0105,0.1845,0.195,0.0579305771222,0.0105,0.1845,0.195,0.0579305771222,0.0105,0.1845,0.195,0.0579305771222,0.0105,0.1845,0.195,0.0579305771222,0.0105,0.1845,0.195,0.0579305771222
35200000,95.556043271,146.218706515,70.224711649,0.6775,0.1895,0.5155,0.013,0.1855,0.1985,0.0699460638999,0.013,0.1855,0.1985,0.0699460638999,0.013,0.1855,0.1985,0.0699460638999,0.013,0.1855,0.1985,0.0699460638999,0.013,0.1855,0.1985,0.0699460638999,0.013,0.1855,0.1985,0.0699460638999
35200000,95.7929204293,145.531644874,70.9235582067,0.7625,0.194,0.5675,0.013,0.189,0.202,0.0681723484848,0.013,0.189,0.202,0.0681723484848,0.013,0.189,0.202,0.0681723484848,0.013,0.189,0.202,0.0681723484848,0.013,0.189,0.202,0.0681723484848,0.013,0.189,0.202,0.0681723484848
35200000,95.8146490639,146.727063054,70.3584420687,0.748,0.198,0.551,0.0185,0.1835,0.202,0.101308811802,0.0185,0.1835,0.202,0.101308811802,0.0185,0.1835,0.202,0.101308811802,0.0185,0.1835,0.202,0.101308811802,0.0185,0.1835,0.202,0.101308811802,0.0185,0.1835,0.202,0.101308811802
35200000,96.4195260454,148.137860002,70.5603590672,0.742,0.2065,0.545,0.015,0.2015,0.2165,0.0739823717949,0.015,0.2015,0.2165,0.0739823717949,0.015,0.2015,0.2165,0.0739823717949,0.015,0.2015,0.2165,0.0739823717949,0.015,0.2015,0.2165,0.0739823717949,0.015,0.2015,0.2165,0.0739823717949
35200000,96.4740927017,148.674500787,70.3738886591,0.7855,0.1965,0.592,0.015,0.1935,0.2085,0.0773047785548,0.015,0.1935,0.2085,0.0773047785548,0.015,0.1935,0.2085,0.0773047785548,0.015,0.1935,0.2085,0.0773047785548,0.011,0.1935,0.2045,0.0564714452214,0.011,0.1935,0.2045,0.0564714452214
35200000,96.8955076048,147.502834158,71.5918443283,0.7455,0.199,0.549,0.0175,0.1685,0.186,0.104627525253,0.0175,0.1685,0.186,0.104627525253,0.0175,0.1685,0.186,0.104627525253,0.0175,0.1685,0.186,0.104627525253,0.0175,0.1685,0.186,0.104627525253,0.0175,0.1685,0.186,0.104627525253
35200000,97.029757181,147.353568142,71.8678517004,0.7275,0.221,0.512,0.016,0.2195,0.2355,0.075603549264,0.016,0.2195,0.2355,0.075603549264,0.016,0.2195,0.2355,0.075603549264,0.016,0.2195,0.2355,0.075603549264,0.016,0.2195,0.2355,0.075603549264,0.016,0.2195,0.2355,0.075603549264
35200000,97.1695120444,147.502209161,72.0031634862,0.741,0.196,0.543,0.0255,0.1955,0.221,0.1309375,0.0255,0.1955,0.221,0.1309375,0.0255,0.1955,0.221,0.1309375,0.0255,0.1955,0.221,0.1309375,0.0255,0.1955,0.221,0.1309375,0.0255,0.1955,0.221,0.1309375
35200000,97.1977218129,149.531693594,71.0307359224,0.7455,0.198,0.5095,0.0225,0.1865,0.209,0.120412137681,0.0145,0.1865,0.201,0.0769338768116,0.0145,0.1865,0.201,0.0769338768116,0.0145,0.1865,0.201,0.0769338768116,0.0145,0.1865,0.201,0.0769338768116,0.0145,0.1865,0.201,0.0769338768116
35200000,97.4282931183,149.713443573,71.2857178909,0.7375,0.197,0.5425,0.015,0.1855,0.2005,0.0807394598155,0.015,0.1855,0.2005,0.0807394598155,0.015,0.1855,0.2005,0.0807394598155,0.015,0.1855,0.2005,0.0807394598155,0.015,0.1855,0.2005,0.0807394598155,0.015,0.1855,0.2005,0.0807394598155
35200000,97.7633773658,148.835880359,72.2271258693,0.764,0.1985,0.5705,0.018,0.1945,0.2125,0.0912401185771,0.018,0.1945,0.2125,0.0912401185771,0.018,0.1945,0.2125,0.0912401185771,0.018,0.1945,0.2125,0.0912401185771,0.018,0.1945,0.2125,0.0912401185771,0.018,0.1945,0.2125,0.0912401185771
35200000,97.7767900089,147.748905629,72.7907321991,0.7375,0.202,0.5375,0.014,0.1935,0.2075,0.0720032051282,0.014,0.1935,0.2075,0.0720032051282,0.014,0.1935,0.2075,0.0720032051282,0.014,0.1935,0.2075,0.0720032051282,0.014,0.1935,0.2075,0.0720032051282,0.014,0.1935,0.2075,0.0720032051282
35200000,97.8864591272,148.911400593,72.3739883941,0.783,0.3335,0.557,0.014,0.322,0.336,0.0489141750698,0.014,0.322,0.336,0.0489141750698,0.014,0.322,0.336,0.0489141750698,0.014,0.322,0.336,0.0489141750698,0.014,0.322,0.336,0.0489141750698,0.014,0.322,0.336,0.0489141750698
35200000,98.1154340245,149.654278094,72.34601199,0.7465,0.193,0.5585,0.017,0.191,0.208,0.0893581780538,0.017,0.191,0.208,0.0893581780538,0.017,0.191,0.208,0.0893581780538,0.017,0.191,0.208,0.0893581780538,0.017,0.191,0.208,0.0893581780538,0.017,0.191,0.208,0.0893581780538
35200000,98.5863321759,149.510526611,73.1242349582,0.7335,0.193,0.5365,0.009,0.189,0.198,0.0480484189723,0.009,0.189,0.198,0.0480484189723,0.009,0.189,0.198,0.0480484189723,0.009,0.189,0.198,0.0480484189723,0.009,0.189,0.198,0.0480484189723,0.009,0.189,0.198,0.0480484189723
