ID,mbp,sbp,dbp,cp,sut,dt,dt10,st10,st10_p_dt10,st10_d_dt10,dt25,st25,st25_p_dt25,st25_d_dt25,dt33,st33,st33_p_dt33,st33_d_dt33,dt50,st50,st50_p_dt50,st50_d_dt50,dt66,st66,st66_p_dt66,st66_d_dt66,dt75,st75,st75_p_dt75,st75_d_dt75
34040000,93.8984154014,130.313543267,75.6908514686,0.7615,0.2175,0.559,0.021,0.2105,0.2315,0.106759866776,0.021,0.2105,0.2315,0.106759866776,0.021,0.2105,0.2315,0.106759866776,0.021,0.2105,0.2315,0.106759866776,0.021,0.2105,0.2315,0.106759866776,0.021,0.2105,0.2315,0.106759866776
34040000,95.2171940847,132.349722769,76.6509297425,0.7555,0.198,0.556,0.0185,0.184,0.2025,0.102309149184,0.0185,0.184,0.2025,0.102309149184,0.0185,0.184,0.2025,0.102309149184,0.0185,0.184,0.2025,0.102309149184,0.0185,0.184,0.2025,0.102309149184,0.0185,0.184,0.2025,0.102309149184
34040000,95.500546714,133.764175998,76.3687320722,0.7625,0.2105,0.556,0.026,0.2015,0.2275,0.128611778846,0.023,0.2015,0.2245,0.113611778846,0.023,0.2015,0.2245,0.113611778846,0.023,0.2015,0.2245,0.113611778846,0.023,0.2015,0.2245,0.113611778846,0.023,0.2015,0.2245,0.113611778846
34040000,96.3299209664,134.515516793,77.2371230533,0.766,0.2065,0.5675,0.0205,0.199,0.2195,0.0987271841219,0.0205,0.199,0.2195,0.0987271841219,0.0205,0.199,0.2195,0.0987271841219,0.0205,0.199,0.2195,0.0987271841219,0.0205,0.199,0.2195,0.0987271841219,0.0205,0.199,0.2195,0.0987271841219
34040000,96.5082225801,133.565749431,77.9794591546,0.7655,0.201,0.4825,0.018,0.1915,0.2095,0.0900198080905,0.018,0.1915,0.2095,0.0900198080905,0.018,0.1915,0.2095,0.0900198080905,0.018,0.1915,0.2095,0.0900198080905,0.018,0.1915,0.2095,0.0900198080905,0.018,0.1915,0.2095,0.0900198080905
34040000,96.8621544971,135.581162204,77.5026506435,0.759,0.2085,0.5545,0.009,0.203,0.212,0.0446394230769,0.009,0.203,0.212,0.0446394230769,0.009,0.203,0.212,0.0446394230769,0.009,0.203,0.212,0.0446394230769,0.009,0.203,0.212,0.0446394230769,0.009,0.203,0.212,0.0446394230769
34040000,96.9090936566,135.420956337,77.6531623165,0.7325,0.249,0.4475,0.013,0.2365,0.2495,0.0566453894942,0.013,0.2365,0.2495,0.0566453894942,0.013,0.2365,0.2495,0.0566453894942,0.013,0.2365,0.2495,0.0566453894942,0.013,0.2365,0.2495,0.0566453894942,0.013,0.2365,0.2495,0.0566453894942
34040000,97.1567441228,137.298235252,77.0859985582,0.7625,0.213,0.55,0.02,0.199,0.219,0.101153846154,0.02,0.199,0.219,0.101153846154,0.02,0.199,0.219,0.101153846154,0.02,0.199,0.219,0.101153846154,0.02,0.199,0.219,0.101153846154,0.02,0.199,0.219,0.101153846154
34040000,97.280822588,134.033983417,78.9042421736,0.7445,0.288,0.4295,0.014,0.256,0.27,0.0659756377467,0.014,0.256,0.27,0.0659756377467,0.014,0.256,0.27,0.0659756377467,0.014,0.256,0.27,0.0659756377467,0.014,0.256,0.27,0.0659756377467,0.014,0.25,0.264,0.0663548086264
34040000,97.8014688246,137.539843206,77.932281634,0.742,0.1975,0.5005,0.031,0.186,0.217,0.167302881297,0.031,0.186,0.217,0.167302881297,0.031,0.186,0.217,0.167302881297,0.031,0.186,0.217,0.167302881297,0.031,0.186,0.217,0.167302881297,0.031,0.186,0.217,0.167302881297
34040000,97.8168344538,135.634796735,78.9078533133,0.726,0.213,0.5225,0.0285,0.209,0.2375,0.137432336182,0.0285,0.209,0.2375,0.137432336182,0.0285,0.209,0.2375,0.137432336182,0.0285,0.209,0.2375,0.137432336182,0.0285,0.209,0.2375,0.137432336182,0.0285,0.209,0.2375,0.137432336182
34040000,98.0049926195,137.314224033,78.3503769126,0.7355,0.2265,0.501,0.012,0.223,0.235,0.0534362351791,0.012,0.223,0.235,0.0534362351791,0.012,0.223,0.235,0.0534362351791,0.012,0.203,0.215,0.0570281892021,0.012,0.203,0.215,0.0570281892021,0.012,0.203,0.215,0.0570281892021
34040000,98.7715660727,139.269721889,78.5224881647,0.757,0.187,0.535,0.029,0.163,0.192,0.189726751208,0.029,0.163,0.192,0.189726751208,0.029,0.163,0.192,0.189726751208,0.029,0.163,0.192,0.189726751208,0.029,0.163,0.192,0.189726751208,0.029,0.163,0.192,0.189726751208
34040000,99.0426237275,140.151017941,78.4884266207,0.684,0.272,0.4715,0.011,0.267,0.278,0.0489785771399,0.011,0.267,0.278,0.0489785771399,0.011,0.267,0.278,0.0489785771399,0.011,0.267,0.278,0.0489785771399,0.011,0.267,0.278,0.0489785771399,0.011,0.267,0.278,0.0489785771399
34040000,99.2554911564,139.98578743,78.8903430197,0.7625,0.21,0.52,0.008,0.193,0.201,0.0428113762668,0.008,0.193,0.201,0.0428113762668,0.008,0.193,0.201,0.0428113762668,0.008,0.193,0.201,0.0428113762668,0.008,0.193,0.201,0.0428113762668,0.008,0.193,0.201,0.0428113762668
34040000,99.5642716681,139.919988126,79.3864134389,0.7495,0.2175,0.4975,0.0115,0.2155,0.227,0.0547627231866,0.0115,0.2155,0.227,0.0547627231866,0.0115,0.2155,0.227,0.0547627231866,0.0115,0.2155,0.227,0.0547627231866,0.0115,0.2155,0.227,0.0547627231866,0.0115,0.2155,0.227,0.0547627231866
34040000,101.10729829,142.943306357,80.189294257,0.76,0.205,0.559,0.0285,0.1905,0.219,0.152280011655,0.0285,0.1905,0.219,0.152280011655,0.0285,0.1905,0.219,0.152280011655,0.0285,0.1905,0.219,0.152280011655,0.0285,0.1905,0.219,0.152280011655,0.0285,0.1905,0.219,0.152280011655
34040000,101.182858776,142.067044363,80.7407659819,0.7255,0.2005,0.5415,0.016,0.1775,0.1935,0.0921577380952,0.016,0.1775,0.1935,0.0921577380952,0.016,0.1775,0.1935,0.0921577380952,0.016,0.1775,0.1935,0.0921577380952,0.016,0.1775,0.1935,0.0921577380952,0.016,0.1775,0.1935,0.0921577380952
34120000,98.098007704,131.844279077,81.2248720173,0.787,0.202,0.58,0.024,0.199,0.223,0.119530677656,0.024,0.199,0.223,0.119530677656,0.024,0.199,0.223,0.119530677656,0.024,0.1975,0.2215,0.11994812753,0.024,0.1975,0.2215,0.11994812753,0.024,0.1975,0.2215,0.11994812753
34120000,98.4894033827,133.99656563,80.7358222593,0.773,0.2075,0.5655,0.0105,0.203,0.2135,0.0520512820513,0.0105,0.203,0.2135,0.0520512820513,0.0105,0.203,0.2135,0.0520512820513,0.0105,0.203,0.2135,0.0520512820513,0.0105,0.203,0.2135,0.0520512820513,0.0105,0.203,0.2135,0.0520512820513
34120000,98.5009340056,138.98064729,78.2610773633,0.76,0.304,0.584,0.008,0.296,0.304,0.027027027027,0.008,0.296,0.304,0.027027027027,0.008,0.296,0.304,0.027027027027,0.008,0.296,0.304,0.027027027027,0.008,0.296,0.304,0.027027027027,0.008,0.296,0.304,0.027027027027
34120000,99.2023923347,141.62421388,77.9914815623,0.774,0.1975,0.5685,0.01,0.1965,0.2065,0.0503968088071,0.01,0.1965,0.2065,0.0503968088071,0.01,0.1965,0.2065,0.0503968088071,0.01,0.1965,0.2065,0.0503968088071,0.01,0.1965,0.2065,0.0503968088071,0.01,0.1965,0.2065,0.0503968088071
34120000,99.2846294039,132.015443307,82.9192224526,0.7575,0.2065,0.5585,0.013,0.1875,0.2005,0.0689924749164,0.013,0.1875,0.2005,0.0689924749164,0.013,0.1875,0.2005,0.0689924749164,0.013,0.1875,0.2005,0.0689924749164,0.013,0.1875,0.2005,0.0689924749164,0.013,0.1875,0.2005,0.0689924749164
34120000,99.5496559058,140.748912684,78.9500275169,0.757,0.2045,0.549,0.015,0.196,0.211,0.0775855179028,0.015,0.196,0.211,0.0775855179028,0.015,0.196,0.211,0.0775855179028,0.015,0.196,0.211,0.0775855179028,0.015,0.196,0.211,0.0775855179028,0.015,0.196,0.211,0.0775855179028
34120000,100.009163612,134.21452752,82.9064816583,0.76,0.201,0.559,0.0205,0.1915,0.212,0.107742474916,0.0205,0.1915,0.212,0.107742474916,0.0205,0.1915,0.212,0.107742474916,0.0205,0.1915,0.212,0.107742474916,0.0205,0.1915,0.212,0.107742474916,0.0205,0.1915,0.212,0.107742474916
34120000,100.074282335,141.728415118,79.247215943,0.791,0.185,0.5495,0.017,0.1815,0.1985,0.0932676924525,0.017,0.1815,0.1985,0.0932676924525,0.017,0.1815,0.1985,0.0932676924525,0.017,0.1815,0.1985,0.0932676924525,0.017,0.1815,0.1985,0.0932676924525,0.017,0.1815,0.1985,0.0932676924525
34120000,100.921965812,142.828294223,79.9688016064,0.773,0.22,0.492,0.0245,0.204,0.2285,0.129052473262,0.0245,0.204,0.2285,0.129052473262,0.0245,0.204,0.2285,0.129052473262,0.0245,0.204,0.2285,0.129052473262,0.0245,0.204,0.2285,0.129052473262,0.0245,0.204,0.2285,0.129052473262
34120000,101.285555023,143.274410678,80.2911271961,0.773,0.244,0.516,0.032,0.2215,0.2535,0.139223538386,0.032,0.2215,0.2535,0.139223538386,0.032,0.2215,0.2535,0.139223538386,0.032,0.2215,0.2535,0.139223538386,0.032,0.2215,0.2535,0.139223538386,0.032,0.2215,0.2535,0.139223538386
34120000,101.52179959,133.203666645,85.680866063,0.7555,0.2035,0.5535,0.0095,0.2015,0.211,0.0475731605351,0.0095,0.2015,0.211,0.0475731605351,0.0095,0.2015,0.211,0.0475731605351,0.0095,0.1995,0.209,0.0479898272018,0.0095,0.1995,0.209,0.0479898272018,0.0095,0.1995,0.209,0.0479898272018
34120000,101.637450391,133.656417621,85.6279667758,0.756,0.204,0.5575,0.008,0.191,0.199,0.0422039232909,0.008,0.191,0.199,0.0422039232909,0.008,0.191,0.199,0.0422039232909,0.008,0.191,0.199,0.0422039232909,0.008,0.191,0.199,0.0422039232909,0.008,0.191,0.199,0.0422039232909
34120000,101.656885401,143.829685114,80.570485545,0.766,0.238,0.491,0.011,0.2285,0.2395,0.0500355309004,0.011,0.2285,0.2395,0.0500355309004,0.011,0.2285,0.2395,0.0500355309004,0.011,0.2285,0.2395,0.0500355309004,0.011,0.2285,0.2395,0.0500355309004,0.011,0.2255,0.2365,0.0520196578845
34120000,101.742019597,143.680795858,80.7726314662,0.7535,0.236,0.472,0.0095,0.224,0.2335,0.0469593033999,0.0095,0.224,0.2335,0.0469593033999,0.0095,0.224,0.2335,0.0469593033999,0.0095,0.224,0.2335,0.0469593033999,0.0095,0.224,0.2335,0.0469593033999,0.0095,0.224,0.2335,0.0469593033999
34120000,102.276938795,138.180747289,84.3250345488,0.797,0.204,0.586,0.01,0.1955,0.2055,0.0512396978022,0.01,0.1955,0.2055,0.0512396978022,0.01,0.1955,0.2055,0.0512396978022,0.01,0.1955,0.2055,0.0512396978022,0.01,0.1955,0.2055,0.0512396978022,0.01,0.1955,0.2055,0.0512396978022
34120000,102.293409911,144.177012951,81.3516083911,0.737,0.1875,0.553,0.008,0.1875,0.1955,0.0435703110296,0.008,0.187,0.195,0.0436103751321,0.008,0.187,0.195,0.0436103751321,0.008,0.187,0.195,0.0436103751321,0.008,0.187,0.195,0.0436103751321,0.008,0.187,0.195,0.0436103751321
34120000,102.3799556,137.285044417,84.9274111914,0.7585,0.2085,0.5505,0.0225,0.2045,0.227,0.110330063455,0.0225,0.2045,0.227,0.110330063455,0.0225,0.2045,0.227,0.110330063455,0.021,0.2045,0.2255,0.103385619011,0.021,0.2045,0.2255,0.103385619011,0.021,0.2045,0.2255,0.103385619011
34120000,103.480530227,145.714649856,82.363470412,0.7715,0.227,0.554,0.0245,0.212,0.2365,0.102492102492,0.0245,0.212,0.2365,0.102492102492,0.0245,0.212,0.2365,0.102492102492,0.0245,0.212,0.2365,0.102492102492,0.0245,0.212,0.2365,0.102492102492,0.0245,0.212,0.2365,0.102492102492
34120000,104.141854507,148.130270633,82.1476464435,0.7675,0.179,0.538,0.008,0.178,0.186,0.0452292006239,0.008,0.178,0.186,0.0452292006239,0.008,0.178,0.186,0.0452292006239,0.008,0.178,0.186,0.0452292006239,0.008,0.178,0.186,0.0452292006239,0.008,0.178,0.186,0.0452292006239
34120000,104.182487807,146.537919994,83.0047717131,0.7545,0.2,0.569,0.009,0.1975,0.2065,0.0466711956522,0.009,0.1975,0.2065,0.0466711956522,0.009,0.1975,0.2065,0.0466711956522,0.009,0.1975,0.2065,0.0466711956522,0.009,0.1975,0.2065,0.0466711956522,0.009,0.1975,0.2065,0.0466711956522
34120000,104.455385251,139.747389199,86.8093832762,0.746,0.2055,0.545,0.0205,0.202,0.2225,0.101137820513,0.0205,0.202,0.2225,0.101137820513,0.0205,0.202,0.2225,0.101137820513,0.0205,0.202,0.2225,0.101137820513,0.0205,0.202,0.2225,0.101137820513,0.0205,0.202,0.2225,0.101137820513
34120000,105.139924237,137.590957127,88.9144077918,0.718,0.1855,0.525,0.01,0.1695,0.1795,0.0583583619375,0.01,0.1695,0.1795,0.0583583619375,0.01,0.1695,0.1795,0.0583583619375,0.01,0.1695,0.1795,0.0583583619375,0.01,0.1695,0.1795,0.0583583619375,0.01,0.1695,0.1795,0.0583583619375
34120000,105.45243337,140.620800594,87.8682497585,0.7605,0.2035,0.559,0.0135,0.194,0.2075,0.0703609986505,0.0135,0.194,0.2075,0.0703609986505,0.0135,0.194,0.2075,0.0703609986505,0.0135,0.194,0.2075,0.0703609986505,0.0135,0.194,0.2075,0.0703609986505,0.0135,0.194,0.2075,0.0703609986505
34120000,105.995709728,138.091301203,89.9479139907,0.741,0.204,0.539,0.0315,0.2025,0.234,0.155360576923,0.0315,0.2025,0.234,0.155360576923,0.0315,0.2025,0.234,0.155360576923,0.0315,0.2025,0.234,0.155360576923,0.0315,0.2025,0.234,0.155360576923,0.0315,0.2025,0.234,0.155360576923
34120000,106.57444051,140.409066144,89.657127693,0.746,0.1995,0.543,0.019,0.188,0.207,0.102464114833,0.019,0.188,0.207,0.102464114833,0.019,0.188,0.207,0.102464114833,0.019,0.188,0.207,0.102464114833,0.019,0.188,0.207,0.102464114833,0.019,0.188,0.207,0.102464114833
34120000,107.864906368,144.171491077,89.7116140137,0.7495,0.2015,0.5465,0.0125,0.2015,0.214,0.0622195512821,0.0125,0.2015,0.214,0.0622195512821,0.0125,0.2015,0.214,0.0622195512821,0.0125,0.2015,0.214,0.0622195512821,0.0125,0.2015,0.214,0.0622195512821,0.0125,0.2015,0.214,0.0622195512821
34120000,108.330327687,142.912871978,91.039055541,0.7405,0.202,0.5365,0.009,0.196,0.205,0.0458855908584,0.009,0.196,0.205,0.0458855908584,0.009,0.196,0.205,0.0458855908584,0.009,0.196,0.205,0.0458855908584,0.009,0.196,0.205,0.0458855908584,0.009,0.196,0.205,0.0458855908584
34120000,109.866508848,145.107174437,92.2461760533,0.746,0.2055,0.5515,0.014,0.1995,0.2135,0.0701602564103,0.014,0.1995,0.2135,0.0701602564103,0.014,0.1995,0.2135,0.0701602564103,0.014,0.1995,0.2135,0.0701602564103,0.012,0.1995,0.2115,0.0601602564103,0.012,0.1995,0.2115,0.0601602564103
34160000,93.7927725619,126.880838049,77.2487398186,0.729,0.1965,0.531,0.029,0.1835,0.2125,0.1572764871,0.029,0.1835,0.2125,0.1572764871,0.029,0.1835,0.2125,0.1572764871,0.029,0.1835,0.2125,0.1572764871,0.029,0.1835,0.2125,0.1572764871,0.029,0.1835,0.2125,0.1572764871
34160000,93.9136322569,133.280503792,74.2301964894,0.714,0.184,0.518,0.023,0.178,0.201,0.135869565217,0.023,0.178,0.201,0.135869565217,0.023,0.178,0.201,0.135869565217,0.023,0.178,0.201,0.135869565217,0.023,0.178,0.201,0.135869565217,0.023,0.178,0.201,0.135869565217
34160000,94.5333681308,137.807656556,72.8962239183,0.738,0.201,0.547,0.019,0.1995,0.2185,0.0944993729097,0.019,0.1995,0.2185,0.0944993729097,0.019,0.1995,0.2185,0.0944993729097,0.019,0.1995,0.2185,0.0944993729097,0.019,0.1995,0.2185,0.0944993729097,0.019,0.1995,0.2185,0.0944993729097
34160000,94.6364155966,139.278987028,72.3151298807,0.769,0.194,0.494,0.014,0.189,0.203,0.07375,0.014,0.189,0.203,0.07375,0.014,0.189,0.203,0.07375,0.014,0.189,0.203,0.07375,0.014,0.189,0.203,0.07375,0.014,0.189,0.203,0.07375
34160000,96.0098782632,140.216500781,73.9065670044,0.75,0.2005,0.548,0.013,0.191,0.204,0.0704618298368,0.013,0.19,0.203,0.071030011655,0.013,0.19,0.203,0.071030011655,0.013,0.19,0.203,0.071030011655,0.013,0.19,0.203,0.071030011655,0.013,0.19,0.203,0.071030011655
34160000,99.2160316522,132.779906503,82.4340942266,0.5685,0.276,0.38,0.034,0.274,0.308,0.158083441982,0.034,0.274,0.308,0.158083441982,0.034,0.274,0.308,0.158083441982,0.034,0.274,0.308,0.158083441982,0.034,0.271,0.305,0.158804595828,0.034,0.271,0.305,0.158804595828
34160000,99.2910292836,144.566151643,76.6534681036,0.684,0.2005,0.469,0.02,0.198,0.218,0.10301831723,0.02,0.198,0.218,0.10301831723,0.02,0.198,0.218,0.10301831723,0.02,0.198,0.218,0.10301831723,0.02,0.198,0.218,0.10301831723,0.02,0.198,0.218,0.10301831723
34160000,101.58220932,145.438814802,79.6539065794,0.716,0.1995,0.4095,0.0115,0.1795,0.191,0.0624358974359,0.0115,0.1795,0.191,0.0624358974359,0.0115,0.1795,0.191,0.0624358974359,0.0115,0.1795,0.191,0.0624358974359,0.0115,0.1795,0.191,0.0624358974359,0.0115,0.1795,0.191,0.0624358974359
34160000,103.00887016,149.094061032,79.9662747238,0.6685,0.196,0.436,0.0115,0.185,0.1965,0.0617802713591,0.0115,0.185,0.1965,0.0617802713591,0.0115,0.185,0.1965,0.0617802713591,0.0115,0.185,0.1965,0.0617802713591,0.0115,0.185,0.1965,0.0617802713591,0.0115,0.185,0.1965,0.0617802713591
34160000,103.181434016,146.259419,81.6424415238,0.779,0.1885,0.5875,0.033,0.1865,0.2195,0.182032828283,0.033,0.1865,0.2195,0.182032828283,0.033,0.1865,0.2195,0.182032828283,0.033,0.1865,0.2195,0.182032828283,0.033,0.1865,0.2195,0.182032828283,0.033,0.1865,0.2195,0.182032828283
34160000,105.427173573,149.822572868,83.229473925,0.6815,0.2055,0.4905,0.0125,0.2055,0.218,0.0630822380705,0.0125,0.2055,0.218,0.0630822380705,0.0125,0.2055,0.218,0.0630822380705,0.0125,0.2055,0.218,0.0630822380705,0.0125,0.2055,0.218,0.0630822380705,0.0125,0.2055,0.218,0.0630822380705
34160000,107.11293007,148.373960727,86.482414742,0.7495,0.282,0.4685,0.028,0.28,0.308,0.101567816242,0.028,0.28,0.308,0.101567816242,0.028,0.28,0.308,0.101567816242,0.028,0.28,0.308,0.101567816242,0.028,0.28,0.308,0.101567816242,0.028,0.28,0.308,0.101567816242
34200000,91.5679523304,134.368192248,70.1678323715,0.8115,0.209,0.5425,0.014,0.2065,0.2205,0.0682834757835,0.014,0.2065,0.2205,0.0682834757835,0.014,0.2065,0.2205,0.0682834757835,0.014,0.2065,0.2205,0.0682834757835,0.014,0.2065,0.2205,0.0682834757835,0.014,0.2065,0.2205,0.0682834757835
34200000,91.9261571741,135.075710402,70.3513805602,0.736,0.217,0.525,0.01,0.216,0.226,0.0459981684982,0.01,0.216,0.226,0.0459981684982,0.01,0.216,0.226,0.0459981684982,0.01,0.216,0.226,0.0459981684982,0.01,0.216,0.226,0.0459981684982,0.01,0.216,0.226,0.0459981684982
34200000,93.4488334013,136.996555801,71.6749722017,0.8105,0.222,0.591,0.011,0.2195,0.2305,0.0502406389906,0.011,0.2195,0.2305,0.0502406389906,0.011,0.2195,0.2305,0.0502406389906,0.011,0.2195,0.2305,0.0502406389906,0.011,0.2195,0.2305,0.0502406389906,0.011,0.2195,0.2305,0.0502406389906
34200000,93.9493036298,138.982584597,71.4326631461,0.8315,0.2185,0.6215,0.0145,0.212,0.2265,0.0676943426943,0.0145,0.212,0.2265,0.0676943426943,0.0145,0.212,0.2265,0.0676943426943,0.0145,0.212,0.2265,0.0676943426943,0.0145,0.212,0.2265,0.0676943426943,0.0145,0.212,0.2265,0.0676943426943
34200000,94.3769767866,137.234675239,72.9481275604,0.8,0.2015,0.5935,0.0115,0.1985,0.21,0.057298026048,0.011,0.1985,0.2095,0.0549832112332,0.011,0.1985,0.2095,0.0549832112332,0.011,0.1985,0.2095,0.0549832112332,0.011,0.1985,0.2095,0.0549832112332,0.011,0.1985,0.2095,0.0549832112332
34200000,94.5223304677,138.472087912,72.5474517455,0.7975,0.2235,0.5795,0.0225,0.2095,0.232,0.106410566985,0.0225,0.2095,0.232,0.106410566985,0.0225,0.2095,0.232,0.106410566985,0.0225,0.2095,0.232,0.106410566985,0.0225,0.2095,0.232,0.106410566985,0.0225,0.2095,0.232,0.106410566985
34200000,94.9249246919,134.322798656,75.2259877101,0.699,0.224,0.5015,0.009,0.224,0.233,0.0400423929519,0.009,0.224,0.233,0.0400423929519,0.009,0.224,0.233,0.0400423929519,0.009,0.224,0.233,0.0400423929519,0.009,0.224,0.233,0.0400423929519,0.009,0.224,0.233,0.0400423929519
34200000,95.9889381842,142.607447709,72.6796834219,0.826,0.22,0.6015,0.011,0.2095,0.2205,0.0529558404558,0.011,0.2095,0.2205,0.0529558404558,0.011,0.2095,0.2205,0.0529558404558,0.011,0.2095,0.2205,0.0529558404558,0.011,0.2095,0.2205,0.0529558404558,0.011,0.2095,0.2205,0.0529558404558
34200000,96.0663702847,140.713898618,73.7426061179,0.7895,0.2095,0.5765,0.037,0.2025,0.2395,0.189457150765,0.037,0.2025,0.2395,0.189457150765,0.037,0.2025,0.2395,0.189457150765,0.037,0.2025,0.2395,0.189457150765,0.037,0.2025,0.2395,0.189457150765,0.037,0.2025,0.2395,0.189457150765
34200000,96.7761465387,140.880153132,74.7241432419,0.807,0.2175,0.594,0.018,0.2055,0.2235,0.0883439728548,0.018,0.2055,0.2235,0.0883439728548,0.018,0.2055,0.2235,0.0883439728548,0.018,0.2055,0.2235,0.0883439728548,0.018,0.2055,0.2235,0.0883439728548,0.018,0.2055,0.2235,0.0883439728548
34200000,97.121608994,142.518072691,74.4233771453,0.832,0.2175,0.6015,0.0185,0.213,0.2315,0.0873079466829,0.0185,0.213,0.2315,0.0873079466829,0.0185,0.213,0.2315,0.0873079466829,0.0185,0.213,0.2315,0.0873079466829,0.0185,0.213,0.2315,0.0873079466829,0.0185,0.213,0.2315,0.0873079466829
34200000,97.1412860081,131.14061918,80.141619422,0.627,0.2215,0.455,0.0145,0.213,0.2275,0.0677119252874,0.0145,0.213,0.2275,0.0677119252874,0.0145,0.213,0.2275,0.0677119252874,0.0145,0.213,0.2275,0.0677119252874,0.0145,0.213,0.2275,0.0677119252874,0.0145,0.213,0.2275,0.0677119252874
34200000,97.268366428,143.589085931,74.1080066766,0.8245,0.2145,0.605,0.0085,0.2115,0.22,0.0403802910053,0.0085,0.2115,0.22,0.0403802910053,0.0085,0.2115,0.22,0.0403802910053,0.0085,0.2115,0.22,0.0403802910053,0.0085,0.2115,0.22,0.0403802910053,0.0085,0.2115,0.22,0.0403802910053
34200000,97.3652152974,143.504696719,74.2954745868,0.8045,0.215,0.585,0.0145,0.193,0.2075,0.0780804843305,0.0145,0.193,0.2075,0.0780804843305,0.0145,0.193,0.2075,0.0780804843305,0.0145,0.193,0.2075,0.0780804843305,0.0145,0.193,0.2075,0.0780804843305,0.0145,0.193,0.2075,0.0780804843305
34200000,97.7580502515,143.826006796,74.7240719795,0.8225,0.1885,0.6075,0.022,0.1845,0.2065,0.133787693704,0.022,0.1845,0.2065,0.133787693704,0.022,0.1845,0.2065,0.133787693704,0.022,0.1845,0.2065,0.133787693704,0.022,0.1845,0.2065,0.133787693704,0.022,0.1845,0.2065,0.133787693704
34200000,97.97247249,140.407843804,76.7547868328,0.783,0.2145,0.5515,0.0145,0.2065,0.221,0.0687830687831,0.0145,0.2065,0.221,0.0687830687831,0.0145,0.2065,0.221,0.0687830687831,0.0145,0.2065,0.221,0.0687830687831,0.0145,0.2065,0.221,0.0687830687831,0.0145,0.2065,0.221,0.0687830687831
34200000,98.0908618815,144.551834004,74.8603758204,0.811,0.218,0.592,0.014,0.212,0.226,0.0655682743183,0.014,0.212,0.226,0.0655682743183,0.014,0.212,0.226,0.0655682743183,0.014,0.212,0.226,0.0655682743183,0.014,0.212,0.226,0.0655682743183,0.014,0.212,0.226,0.0655682743183
34200000,98.6116781473,145.45700324,75.1890156011,0.79,0.2175,0.5735,0.0205,0.2145,0.235,0.0952635327635,0.0205,0.2135,0.234,0.0954558404558,0.0205,0.2135,0.234,0.0954558404558,0.0205,0.2135,0.234,0.0954558404558,0.0205,0.2135,0.234,0.0954558404558,0.0205,0.2135,0.234,0.0954558404558
34200000,98.938073948,144.554074022,76.1300739108,0.7375,0.188,0.5345,0.009,0.185,0.194,0.0522259383129,0.009,0.185,0.194,0.0522259383129,0.009,0.185,0.194,0.0522259383129,0.009,0.185,0.194,0.0522259383129,0.009,0.185,0.194,0.0522259383129,0.009,0.185,0.194,0.0522259383129
34200000,99.8328720171,146.885238142,76.3066889545,0.772,0.2005,0.5625,0.0295,0.183,0.2125,0.161000457875,0.0295,0.183,0.2125,0.161000457875,0.0295,0.183,0.2125,0.161000457875,0.0295,0.182,0.2115,0.161453356426,0.0295,0.182,0.2115,0.161453356426,0.0295,0.182,0.2115,0.161453356426
34200000,99.9343956753,145.628752885,77.0872170704,0.791,0.2215,0.5765,0.0135,0.219,0.2325,0.0621057183557,0.0135,0.219,0.2325,0.0621057183557,0.0135,0.219,0.2325,0.0621057183557,0.0135,0.219,0.2325,0.0621057183557,0.0135,0.219,0.2325,0.0621057183557,0.0135,0.219,0.2325,0.0621057183557
34200000,100.025982776,146.437611868,76.8201682298,0.803,0.217,0.5855,0.011,0.2,0.211,0.0540772371751,0.011,0.2,0.211,0.0540772371751,0.011,0.2,0.211,0.0540772371751,0.011,0.2,0.211,0.0540772371751,0.011,0.2,0.211,0.0540772371751,0.011,0.2,0.211,0.0540772371751
34200000,100.154178767,147.405368873,76.5285837143,0.795,0.219,0.577,0.0095,0.206,0.2155,0.0458228044098,0.0095,0.206,0.2155,0.0458228044098,0.0095,0.206,0.2155,0.0458228044098,0.0095,0.206,0.2155,0.0458228044098,0.0095,0.206,0.2155,0.0458228044098,0.0095,0.206,0.2155,0.0458228044098
34200000,100.890693498,147.340617662,77.6657314165,0.83,0.2185,0.612,0.013,0.202,0.215,0.0635101794341,0.013,0.202,0.215,0.0635101794341,0.013,0.202,0.215,0.0635101794341,0.013,0.202,0.215,0.0635101794341,0.013,0.202,0.215,0.0635101794341,0.013,0.202,0.215,0.0635101794341
34200000,101.358515032,141.298248704,81.388648196,0.6875,0.223,0.48,0.0245,0.2165,0.241,0.122731481481,0.0245,0.2165,0.241,0.122731481481,0.0245,0.2165,0.241,0.122731481481,0.0245,0.2165,0.241,0.122731481481,0.0245,0.2165,0.241,0.122731481481,0.0245,0.2165,0.241,0.122731481481
34200000,101.488576705,149.108338057,77.6786960297,0.772,0.224,0.548,0.016,0.216,0.232,0.071724137931,0.016,0.216,0.232,0.071724137931,0.016,0.216,0.232,0.071724137931,0.016,0.216,0.232,0.071724137931,0.016,0.216,0.232,0.071724137931,0.016,0.216,0.232,0.071724137931
34200000,101.520021287,148.36838442,78.0958397201,0.806,0.219,0.5865,0.0215,0.2115,0.233,0.100464544513,0.0215,0.2115,0.233,0.100464544513,0.0215,0.2115,0.233,0.100464544513,0.0215,0.2115,0.233,0.100464544513,0.0215,0.2115,0.233,0.100464544513,0.0215,0.2115,0.233,0.100464544513
34200000,101.860694147,149.283865073,78.1491086843,0.792,0.2155,0.579,0.013,0.204,0.217,0.063698489011,0.013,0.204,0.217,0.063698489011,0.013,0.204,0.217,0.063698489011,0.013,0.204,0.217,0.063698489011,0.013,0.204,0.217,0.063698489011,0.013,0.204,0.217,0.063698489011
34200000,102.125700962,148.785523923,78.7957894822,0.7915,0.2185,0.569,0.025,0.213,0.238,0.116571331245,0.025,0.213,0.238,0.116571331245,0.025,0.213,0.238,0.116571331245,0.025,0.213,0.238,0.116571331245,0.025,0.213,0.238,0.116571331245,0.025,0.213,0.238,0.116571331245
34200000,102.375752559,147.180064994,79.9735963411,0.765,0.209,0.558,0.0265,0.2065,0.233,0.128075998076,0.0265,0.2065,0.233,0.128075998076,0.0265,0.2065,0.233,0.128075998076,0.0265,0.2025,0.229,0.130575998076,0.0265,0.2025,0.229,0.130575998076,0.0265,0.2025,0.229,0.130575998076
34200000,102.52592272,148.63805274,79.4698577095,0.8095,0.2165,0.5945,0.0185,0.212,0.2305,0.0863769885509,0.0185,0.212,0.2305,0.0863769885509,0.0185,0.212,0.2305,0.0863769885509,0.0185,0.212,0.2305,0.0863769885509,0.0185,0.212,0.2305,0.0863769885509,0.0185,0.212,0.2305,0.0863769885509
34200000,102.621844524,149.175354688,79.3450894425,0.824,0.212,0.6065,0.0185,0.209,0.2275,0.0893013236763,0.0185,0.209,0.2275,0.0893013236763,0.0185,0.209,0.2275,0.0893013236763,0.0185,0.209,0.2275,0.0893013236763,0.0185,0.209,0.2275,0.0893013236763,0.0185,0.209,0.2275,0.0893013236763
34200000,102.780202765,149.307066085,79.5167711049,0.8055,0.2095,0.5955,0.011,0.209,0.22,0.0531339031339,0.011,0.209,0.22,0.0531339031339,0.011,0.209,0.22,0.0531339031339,0.011,0.209,0.22,0.0531339031339,0.011,0.209,0.22,0.0531339031339,0.011,0.209,0.22,0.0531339031339
34200000,102.859622327,149.619407098,79.4797299408,0.806,0.22,0.587,0.016,0.218,0.234,0.0731456043956,0.016,0.218,0.234,0.0731456043956,0.016,0.218,0.234,0.0731456043956,0.016,0.218,0.234,0.0731456043956,0.016,0.218,0.234,0.0731456043956,0.016,0.218,0.234,0.0731456043956
34200000,102.863953627,147.744264621,80.42379813,0.785,0.215,0.5745,0.0125,0.214,0.2265,0.0589503599848,0.0125,0.214,0.2265,0.0589503599848,0.0125,0.214,0.2265,0.0589503599848,0.0125,0.214,0.2265,0.0589503599848,0.0125,0.214,0.2265,0.0589503599848,0.0125,0.214,0.2265,0.0589503599848
34200000,102.87293887,149.547531739,79.5356424358,0.7905,0.22,0.5765,0.0095,0.2085,0.218,0.0455395299145,0.0095,0.2085,0.218,0.0455395299145,0.0095,0.2085,0.218,0.0455395299145,0.0095,0.2085,0.218,0.0455395299145,0.0095,0.2085,0.218,0.0455395299145,0.0095,0.2085,0.218,0.0455395299145
34200000,102.937986272,149.560680245,79.6266392858,0.809,0.212,0.5985,0.015,0.2095,0.2245,0.072589031339,0.015,0.2095,0.2245,0.072589031339,0.015,0.209,0.224,0.0727813390313,0.0145,0.209,0.2235,0.0702813390313,0.0145,0.209,0.2235,0.0702813390313,0.0145,0.209,0.2235,0.0702813390313
34200000,103.099864683,148.233816956,80.5328885464,0.777,0.226,0.5595,0.024,0.218,0.242,0.106737062825,0.024,0.218,0.242,0.106737062825,0.024,0.218,0.242,0.106737062825,0.024,0.218,0.242,0.106737062825,0.024,0.218,0.242,0.106737062825,0.024,0.218,0.242,0.106737062825
34200000,103.359375081,149.476370154,80.3008775449,0.793,0.2195,0.5795,0.0115,0.2015,0.213,0.0565544871795,0.0115,0.2015,0.213,0.0565544871795,0.0115,0.2015,0.213,0.0565544871795,0.0115,0.2015,0.213,0.0565544871795,0.0115,0.2015,0.213,0.0565544871795,0.0115,0.2015,0.213,0.0565544871795
34200000,103.655721939,149.875761557,80.5457021303,0.7285,0.201,0.5205,0.0125,0.199,0.2115,0.0630263577003,0.0125,0.199,0.2115,0.0630263577003,0.0125,0.199,0.2115,0.0630263577003,0.0125,0.199,0.2115,0.0630263577003,0.0125,0.199,0.2115,0.0630263577003,0.0125,0.199,0.2115,0.0630263577003
34200000,104.057399231,149.663145999,81.2545258472,0.7725,0.2125,0.5585,0.008,0.2015,0.2095,0.0398623391296,0.008,0.2015,0.2095,0.0398623391296,0.008,0.2015,0.2095,0.0398623391296,0.008,0.2015,0.2095,0.0398623391296,0.008,0.2015,0.2095,0.0398623391296,0.008,0.2015,0.2095,0.0398623391296
34200000,104.393503418,149.349943628,81.9152833134,0.755,0.221,0.5195,0.016,0.214,0.23,0.0750915750916,0.016,0.214,0.23,0.0750915750916,0.016,0.214,0.23,0.0750915750916,0.016,0.214,0.23,0.0750915750916,0.016,0.214,0.23,0.0750915750916,0.016,0.214,0.23,0.0750915750916
34200000,104.425865496,148.382016605,82.4477899423,0.753,0.233,0.5325,0.02,0.2265,0.2465,0.0903109571588,0.02,0.2265,0.2465,0.0903109571588,0.02,0.2265,0.2465,0.0903109571588,0.02,0.2265,0.2465,0.0903109571588,0.02,0.2265,0.2465,0.0903109571588,0.02,0.2265,0.2465,0.0903109571588
34200000,104.442250853,149.668220333,81.8292661126,0.764,0.211,0.5545,0.013,0.205,0.218,0.0635141941392,0.013,0.205,0.218,0.0635141941392,0.013,0.205,0.218,0.0635141941392,0.013,0.205,0.218,0.0635141941392,0.013,0.205,0.218,0.0635141941392,0.013,0.205,0.218,0.0635141941392
34200000,104.563568432,148.954120879,82.3682922084,0.765,0.214,0.557,0.012,0.213,0.225,0.0575492168446,0.012,0.213,0.225,0.0575492168446,0.012,0.213,0.225,0.0575492168446,0.012,0.213,0.225,0.0575492168446,0.012,0.213,0.225,0.0575492168446,0.012,0.213,0.225,0.0575492168446
34200000,105.33414908,149.391965198,83.3052410205,0.7495,0.214,0.5295,0.014,0.2075,0.2215,0.0674038461538,0.014,0.2075,0.2215,0.0674038461538,0.014,0.2075,0.2215,0.0674038461538,0.014,0.2075,0.2215,0.0674038461538,0.014,0.2075,0.2215,0.0674038461538,0.014,0.2075,0.2215,0.0674038461538
34200000,106.472289341,149.462840318,84.9770138529,0.745,0.215,0.529,0.0085,0.196,0.2045,0.0433132045089,0.0085,0.196,0.2045,0.0433132045089,0.0085,0.196,0.2045,0.0433132045089,0.0085,0.196,0.2045,0.0433132045089,0.0085,0.196,0.2045,0.0433132045089,0.0085,0.196,0.2045,0.0433132045089
34200000,107.412479935,149.384737685,86.4263510596,0.7575,0.212,0.555,0.014,0.2085,0.2225,0.0684375,0.014,0.2085,0.2225,0.0684375,0.014,0.2085,0.2225,0.0684375,0.014,0.2085,0.2225,0.0684375,0.014,0.2085,0.2225,0.0684375,0.014,0.2085,0.2225,0.0684375
34200000,109.536810739,148.696379127,89.9570265456,0.6555,0.197,0.4355,0.0245,0.1885,0.213,0.129198310747,0.0245,0.1885,0.213,0.129198310747,0.0245,0.1885,0.213,0.129198310747,0.0245,0.1885,0.213,0.129198310747,0.0245,0.1885,0.213,0.129198310747,0.0245,0.1885,0.213,0.129198310747
34200000,110.568212954,149.956906709,90.873866077,0.7255,0.209,0.517,0.011,0.204,0.215,0.0567032967033,0.011,0.204,0.215,0.0567032967033,0.011,0.204,0.215,0.0567032967033,0.011,0.204,0.215,0.0567032967033,0.011,0.204,0.215,0.0567032967033,0.011,0.204,0.215,0.0567032967033
34240000,99.2358725385,146.184839545,75.7613890353,0.743,0.208,0.533,0.012,0.207,0.219,0.0578846153846,0.012,0.207,0.219,0.0578846153846,0.012,0.207,0.219,0.0578846153846,0.012,0.207,0.219,0.0578846153846,0.012,0.207,0.219,0.0578846153846,0.012,0.207,0.219,0.0578846153846
34240000,100.14489254,143.029046276,78.7028156718,0.7895,0.352,0.2255,0.015,0.345,0.36,0.0583707264957,0.015,0.345,0.36,0.0583707264957,0.015,0.345,0.36,0.0583707264957,0.015,0.345,0.36,0.0583707264957,0.015,0.345,0.36,0.0583707264957,0.015,0.345,0.36,0.0583707264957
34240000,100.812672909,146.0983484,78.1698351629,0.7125,0.2025,0.5115,0.015,0.1915,0.2065,0.0785461956522,0.015,0.1915,0.2065,0.0785461956522,0.015,0.1915,0.2065,0.0785461956522,0.015,0.1915,0.2065,0.0785461956522,0.015,0.1915,0.2065,0.0785461956522,0.015,0.1915,0.2065,0.0785461956522
34240000,101.21797936,148.550126483,77.5519057994,0.752,0.192,0.536,0.008,0.184,0.192,0.0434782608696,0.008,0.184,0.192,0.0434782608696,0.008,0.184,0.192,0.0434782608696,0.008,0.184,0.192,0.0434782608696,0.008,0.184,0.192,0.0434782608696,0.008,0.184,0.192,0.0434782608696
34240000,102.163561403,149.530984181,78.4798500137,0.7075,0.2005,0.5115,0.009,0.1965,0.2055,0.0455528846154,0.009,0.1965,0.2055,0.0455528846154,0.009,0.1965,0.2055,0.0455528846154,0.009,0.1965,0.2055,0.0455528846154,0.009,0.1965,0.2055,0.0455528846154,0.009,0.1965,0.2055,0.0455528846154
34240000,102.443283486,148.922821692,79.2035143826,0.732,0.1955,0.535,0.0365,0.188,0.2245,0.18601557791,0.0365,0.188,0.2245,0.18601557791,0.0365,0.188,0.2245,0.18601557791,0.0365,0.188,0.2245,0.18601557791,0.0365,0.188,0.2245,0.18601557791,0.0365,0.188,0.2245,0.18601557791
34240000,103.532184069,149.215794976,80.6903786152,0.6995,0.2055,0.504,0.0125,0.1915,0.204,0.0652232142857,0.0125,0.1915,0.204,0.0652232142857,0.0125,0.1915,0.204,0.0652232142857,0.0125,0.1915,0.204,0.0652232142857,0.0125,0.1915,0.204,0.0652232142857,0.0125,0.1915,0.204,0.0652232142857
34240000,103.675850181,149.529102337,80.7492241022,0.6695,0.222,0.4635,0.017,0.2135,0.2305,0.0834235209235,0.017,0.2135,0.2305,0.0834235209235,0.017,0.2135,0.2305,0.0834235209235,0.017,0.2135,0.2305,0.0834235209235,0.017,0.2135,0.2305,0.0834235209235,0.017,0.2135,0.2305,0.0834235209235
34240000,103.960464811,149.59818184,81.1416062972,0.6835,0.204,0.463,0.0105,0.2025,0.213,0.0516346153846,0.0105,0.2025,0.213,0.0516346153846,0.0105,0.2025,0.213,0.0516346153846,0.0105,0.2025,0.213,0.0516346153846,0.0105,0.2025,0.213,0.0516346153846,0.0105,0.2025,0.213,0.0516346153846
34240000,104.197079417,149.602382544,81.4944278525,0.6845,0.1905,0.4965,0.0265,0.1845,0.211,0.144639328063,0.0265,0.1845,0.211,0.144639328063,0.0265,0.1845,0.211,0.144639328063,0.0265,0.1845,0.211,0.144639328063,0.0265,0.1845,0.211,0.144639328063,0.0265,0.1845,0.211,0.144639328063
34240000,104.243162658,149.674749098,81.5273694376,0.6855,0.2005,0.4895,0.016,0.1915,0.2075,0.0839618171683,0.016,0.1915,0.2075,0.0839618171683,0.016,0.1915,0.2075,0.0839618171683,0.016,0.1915,0.2075,0.0839618171683,0.016,0.1915,0.2075,0.0839618171683,0.016,0.1915,0.2075,0.0839618171683
34240000,104.249926973,148.92778387,81.910998524,0.669,0.244,0.4495,0.015,0.2435,0.2585,0.0738260422677,0.015,0.2435,0.2585,0.0738260422677,0.015,0.2435,0.2585,0.0738260422677,0.015,0.2435,0.2585,0.0738260422677,0.015,0.2435,0.2585,0.0738260422677,0.015,0.2435,0.2585,0.0738260422677
34240000,105.128082379,149.57997845,82.9021343439,0.6965,0.2005,0.4545,0.0275,0.1945,0.222,0.142193820672,0.0275,0.1945,0.222,0.142193820672,0.0275,0.1945,0.222,0.142193820672,0.0275,0.1945,0.222,0.142193820672,0.0275,0.1945,0.222,0.142193820672,0.0275,0.1945,0.222,0.142193820672
34240000,106.508058393,148.959498513,85.2823383337,0.6745,0.189,0.473,0.01,0.1775,0.1875,0.0647088780784,0.01,0.1775,0.1875,0.0647088780784,0.01,0.1775,0.1875,0.0647088780784,0.01,0.1775,0.1875,0.0647088780784,0.01,0.1775,0.1875,0.0647088780784,0.01,0.1775,0.1875,0.0647088780784
34240000,107.11622773,149.309926069,86.0193785607,0.7685,0.2725,0.4465,0.013,0.2525,0.2655,0.0618171996511,0.013,0.2525,0.2655,0.0618171996511,0.013,0.2525,0.2655,0.0618171996511,0.013,0.2525,0.2655,0.0618171996511,0.013,0.2525,0.2655,0.0618171996511,0.013,0.2525,0.2655,0.0618171996511
34240000,107.381813945,150.099443057,86.0229993889,0.6595,0.203,0.4475,0.0115,0.199,0.2105,0.0656001984127,0.0115,0.199,0.2105,0.0656001984127,0.0115,0.199,0.2105,0.0656001984127,0.0115,0.199,0.2105,0.0656001984127,0.0115,0.199,0.2105,0.0656001984127,0.0115,0.199,0.2105,0.0656001984127
34480000,98.2793514724,145.32456807,74.7567431738,0.8785,0.244,0.6365,0.011,0.2385,0.2495,0.049537037037,0.011,0.2385,0.2495,0.049537037037,0.011,0.2385,0.2495,0.049537037037,0.011,0.2385,0.2495,0.049537037037,0.011,0.2385,0.2495,0.049537037037,0.011,0.2385,0.2495,0.049537037037
34480000,98.4682274464,148.026605375,73.6890384819,0.8235,0.198,0.6185,0.0135,0.1965,0.21,0.0682575757576,0.0135,0.1965,0.21,0.0682575757576,0.0135,0.1965,0.21,0.0682575757576,0.0135,0.1965,0.21,0.0682575757576,0.0135,0.1965,0.21,0.0682575757576,0.0135,0.1965,0.21,0.0682575757576
34480000,99.2522332138,145.763377851,75.9966608952,0.731,0.1975,0.541,0.0085,0.1925,0.201,0.0441555500659,0.0085,0.1925,0.201,0.0441555500659,0.0085,0.1925,0.201,0.0441555500659,0.0085,0.1925,0.201,0.0441555500659,0.0085,0.1925,0.201,0.0441555500659,0.0085,0.1925,0.201,0.0441555500659
34480000,99.2571547495,149.768836472,74.0013138885,0.8225,0.203,0.621,0.0195,0.198,0.2175,0.0975836120401,0.0195,0.198,0.2175,0.0975836120401,0.0195,0.198,0.2175,0.0975836120401,0.0195,0.198,0.2175,0.0975836120401,0.0195,0.198,0.2175,0.0975836120401,0.0195,0.198,0.2175,0.0975836120401
34480000,99.5920671812,148.945501747,74.9153498986,0.787,0.1955,0.5895,0.009,0.1935,0.2025,0.0463722826087,0.009,0.1935,0.2025,0.0463722826087,0.009,0.1935,0.2025,0.0463722826087,0.009,0.1935,0.2025,0.0463722826087,0.009,0.1935,0.2025,0.0463722826087,0.009,0.1935,0.2025,0.0463722826087
34480000,99.6021999171,149.416177695,74.6952110283,0.817,0.199,0.616,0.014,0.1935,0.2075,0.0731579380764,0.014,0.1935,0.2075,0.0731579380764,0.014,0.1935,0.2075,0.0731579380764,0.014,0.1935,0.2075,0.0731579380764,0.014,0.1935,0.2075,0.0731579380764,0.014,0.1935,0.2075,0.0731579380764
34480000,99.7787162187,149.364458411,74.9858451224,0.787,0.201,0.5875,0.0095,0.195,0.2045,0.0492764708118,0.0095,0.195,0.2045,0.0492764708118,0.0095,0.195,0.2045,0.0492764708118,0.0095,0.195,0.2045,0.0492764708118,0.0095,0.195,0.2045,0.0492764708118,0.0095,0.195,0.2045,0.0492764708118
34480000,100.012546389,149.168108452,75.4347653579,0.765,0.195,0.567,0.01,0.193,0.203,0.0521557971014,0.01,0.193,0.203,0.0521557971014,0.01,0.193,0.203,0.0521557971014,0.01,0.193,0.203,0.0521557971014,0.01,0.189,0.199,0.0529891304348,0.01,0.189,0.199,0.0529891304348
34480000,100.022211564,148.939231769,75.5637014611,0.7875,0.1985,0.5855,0.0195,0.1915,0.211,0.102706243032,0.0195,0.1915,0.211,0.102706243032,0.0195,0.1915,0.211,0.102706243032,0.0195,0.1915,0.211,0.102706243032,0.0195,0.1915,0.211,0.102706243032,0.0195,0.1915,0.211,0.102706243032
34480000,100.520772235,149.216065256,76.1731257248,0.7825,0.2005,0.5805,0.0265,0.198,0.2245,0.133143115942,0.0265,0.198,0.2245,0.133143115942,0.0265,0.198,0.2245,0.133143115942,0.0265,0.198,0.2245,0.133143115942,0.0265,0.198,0.2245,0.133143115942,0.0265,0.198,0.2245,0.133143115942
34480000,100.547185402,150.031170595,75.8051928055,0.801,0.1985,0.602,0.017,0.188,0.205,0.0918083003953,0.017,0.188,0.205,0.0918083003953,0.017,0.188,0.205,0.0918083003953,0.017,0.188,0.205,0.0918083003953,0.017,0.188,0.205,0.0918083003953,0.017,0.188,0.205,0.0918083003953
34480000,100.566974421,149.975683944,75.8626196595,0.8205,0.199,0.6195,0.0135,0.1925,0.206,0.0698847167325,0.0135,0.1925,0.206,0.0698847167325,0.0135,0.1925,0.206,0.0698847167325,0.0135,0.1925,0.206,0.0698847167325,0.0135,0.1925,0.206,0.0698847167325,0.0135,0.1925,0.206,0.0698847167325
34480000,100.963425246,149.736153408,76.5770611651,0.8665,0.2195,0.6415,0.0105,0.213,0.2235,0.0495854145854,0.0105,0.213,0.2235,0.0495854145854,0.0105,0.213,0.2235,0.0495854145854,0.0105,0.213,0.2235,0.0495854145854,0.0105,0.213,0.2235,0.0495854145854,0.0105,0.213,0.2235,0.0495854145854
34480000,101.16694704,150.084313159,76.7082639802,0.8125,0.2,0.6125,0.012,0.1935,0.2055,0.0619791666667,0.012,0.1935,0.2055,0.0619791666667,0.012,0.1935,0.2055,0.0619791666667,0.012,0.1935,0.2055,0.0619791666667,0.012,0.1935,0.2055,0.0619791666667,0.012,0.1935,0.2055,0.0619791666667
34480000,101.280879475,150.14824633,76.8471960476,0.805,0.193,0.606,0.0105,0.176,0.1865,0.058768115942,0.0105,0.176,0.1865,0.058768115942,0.0105,0.176,0.1865,0.058768115942,0.0105,0.176,0.1865,0.058768115942,0.0105,0.176,0.1865,0.058768115942,0.0105,0.176,0.1865,0.058768115942
34480000,101.370158943,149.80166614,77.1544053446,0.8695,0.2245,0.6445,0.012,0.2205,0.2325,0.0537426376098,0.012,0.2205,0.2325,0.0537426376098,0.012,0.2205,0.2325,0.0537426376098,0.012,0.2205,0.2325,0.0537426376098,0.012,0.2205,0.2325,0.0537426376098,0.012,0.2205,0.2325,0.0537426376098
34480000,101.529987558,150.013266378,77.2883481482,0.7855,0.1965,0.5845,0.02,0.182,0.202,0.112204380764,0.02,0.182,0.202,0.112204380764,0.02,0.182,0.202,0.112204380764,0.02,0.182,0.202,0.112204380764,0.02,0.182,0.202,0.112204380764,0.02,0.182,0.202,0.112204380764
34480000,101.729352192,149.976265317,77.6058956286,0.8105,0.1885,0.605,0.0195,0.1815,0.201,0.106935523715,0.0195,0.1815,0.201,0.106935523715,0.0195,0.1815,0.201,0.106935523715,0.0195,0.1815,0.201,0.106935523715,0.0195,0.1815,0.201,0.106935523715,0.0195,0.1815,0.201,0.106935523715
34480000,102.398122352,150.005304717,78.5945311694,0.826,0.204,0.6245,0.013,0.2005,0.2135,0.0645192307692,0.013,0.2005,0.2135,0.0645192307692,0.013,0.2005,0.2135,0.0645192307692,0.013,0.2005,0.2135,0.0645192307692,0.013,0.2005,0.2135,0.0645192307692,0.013,0.2005,0.2135,0.0645192307692
34480000,102.530323898,150.254487348,78.668242173,0.821,0.211,0.507,0.0165,0.209,0.2255,0.0813068181818,0.0165,0.209,0.2255,0.0813068181818,0.0165,0.209,0.2255,0.0813068181818,0.0165,0.209,0.2255,0.0813068181818,0.0165,0.209,0.2255,0.0813068181818,0.0165,0.209,0.2255,0.0813068181818
34480000,102.604067472,150.259148407,78.7765270047,0.792,0.196,0.5975,0.0105,0.194,0.2045,0.0544499341238,0.0105,0.194,0.2045,0.0544499341238,0.0105,0.194,0.2045,0.0544499341238,0.0105,0.194,0.2045,0.0544499341238,0.0105,0.194,0.2045,0.0544499341238,0.0105,0.194,0.2045,0.0544499341238
34480000,102.881413815,150.14224659,79.2509974274,0.7775,0.2065,0.578,0.0135,0.2025,0.216,0.0654023150762,0.0135,0.2025,0.216,0.0654023150762,0.0135,0.2025,0.216,0.0654023150762,0.0135,0.2025,0.216,0.0654023150762,0.0135,0.2025,0.216,0.0654023150762,0.0135,0.2025,0.216,0.0654023150762
34480000,102.992099426,149.192816168,79.8917410543,0.772,0.202,0.569,0.01,0.187,0.197,0.0536288892267,0.01,0.187,0.197,0.0536288892267,0.01,0.187,0.197,0.0536288892267,0.01,0.187,0.197,0.0536288892267,0.01,0.187,0.197,0.0536288892267,0.01,0.187,0.197,0.0536288892267
34480000,103.287521159,150.195163705,79.8336998861,0.764,0.2005,0.571,0.0115,0.1955,0.207,0.0599053030303,0.0115,0.1955,0.207,0.0599053030303,0.0115,0.1955,0.207,0.0599053030303,0.01,0.1955,0.2055,0.0513825757576,0.01,0.1955,0.2055,0.0513825757576,0.01,0.1955,0.2055,0.0513825757576
34480000,103.363384193,150.155963683,79.9670944484,0.7905,0.196,0.591,0.0095,0.186,0.1955,0.0522325514874,0.0095,0.186,0.1955,0.0522325514874,0.0095,0.186,0.1955,0.0522325514874,0.0095,0.186,0.1955,0.0522325514874,0.0095,0.186,0.1955,0.0522325514874,0.0095,0.186,0.1955,0.0522325514874
34480000,103.714646548,150.296836342,80.4235516515,0.7925,0.1985,0.589,0.0105,0.1975,0.208,0.0530492424242,0.0105,0.1975,0.208,0.0530492424242,0.0105,0.1975,0.208,0.0530492424242,0.0105,0.1975,0.208,0.0530492424242,0.0105,0.1975,0.208,0.0530492424242,0.0105,0.1975,0.208,0.0530492424242
34480000,104.27097355,150.324865565,81.2440275419,0.7925,0.2235,0.5905,0.01,0.222,0.232,0.0475322061192,0.01,0.2205,0.2305,0.0478731152101,0.01,0.2205,0.2305,0.0478731152101,0.01,0.2205,0.2305,0.0478731152101,0.01,0.2205,0.2305,0.0478731152101,0.01,0.2205,0.2305,0.0478731152101
34480000,104.496288238,150.365188234,81.5618382408,0.804,0.1755,0.5925,0.023,0.162,0.185,0.145698763955,0.023,0.162,0.185,0.145698763955,0.023,0.162,0.185,0.145698763955,0.023,0.162,0.185,0.145698763955,0.023,0.162,0.185,0.145698763955,0.023,0.162,0.185,0.145698763955
34480000,104.559776575,149.662303119,82.0085133035,0.777,0.1985,0.584,0.009,0.186,0.195,0.04851342711,0.009,0.186,0.195,0.04851342711,0.009,0.186,0.195,0.04851342711,0.009,0.186,0.195,0.04851342711,0.009,0.186,0.195,0.04851342711,0.009,0.186,0.195,0.04851342711
34480000,104.758863814,148.016275954,83.1301577436,0.7435,0.1895,0.5585,0.0175,0.1815,0.199,0.0977312446718,0.0175,0.1815,0.199,0.0977312446718,0.0175,0.1815,0.199,0.0977312446718,0.0175,0.1815,0.199,0.0977312446718,0.0175,0.1815,0.199,0.0977312446718,0.0175,0.1815,0.199,0.0977312446718
34480000,104.899497048,150.189824575,82.2543332839,0.8005,0.2195,0.5925,0.01,0.216,0.226,0.0476718312743,0.01,0.216,0.226,0.0476718312743,0.01,0.216,0.226,0.0476718312743,0.01,0.216,0.226,0.0476718312743,0.01,0.216,0.226,0.0476718312743,0.01,0.216,0.226,0.0476718312743
34480000,105.25092119,150.228732445,82.7620155628,0.8635,0.2075,0.5635,0.0245,0.2035,0.228,0.120480769231,0.0245,0.2035,0.228,0.120480769231,0.0245,0.2035,0.228,0.120480769231,0.0245,0.2035,0.228,0.120480769231,0.0245,0.2035,0.228,0.120480769231,0.0245,0.2035,0.228,0.120480769231
34600000,94.9771391998,137.863981158,73.5337182206,0.7825,0.183,0.589,0.0235,0.179,0.2025,0.130990612648,0.0235,0.179,0.2025,0.130990612648,0.0235,0.179,0.2025,0.130990612648,0.0235,0.179,0.2025,0.130990612648,0.0235,0.179,0.2025,0.130990612648,0.0235,0.179,0.2025,0.130990612648
34600000,95.1216444415,138.732853696,73.3160398142,0.789,0.1845,0.608,0.0095,0.174,0.1835,0.0545925089403,0.0095,0.174,0.1835,0.0545925089403,0.0095,0.174,0.1835,0.0545925089403,0.0095,0.174,0.1835,0.0545925089403,0.0095,0.174,0.1835,0.0545925089403,0.0095,0.174,0.1835,0.0545925089403
34600000,95.3882881488,139.526682919,73.3190907636,0.776,0.182,0.597,0.012,0.179,0.191,0.0692158385093,0.012,0.179,0.191,0.0692158385093,0.012,0.179,0.191,0.0692158385093,0.012,0.179,0.191,0.0692158385093,0.012,0.179,0.191,0.0692158385093,0.012,0.179,0.191,0.0692158385093
34600000,96.1137490653,140.523979778,73.9086337092,0.785,0.182,0.6065,0.016,0.1795,0.1955,0.0883924160079,0.016,0.1795,0.1955,0.0883924160079,0.016,0.1795,0.1955,0.0883924160079,0.016,0.1795,0.1955,0.0883924160079,0.016,0.1795,0.1955,0.0883924160079,0.016,0.1795,0.1955,0.0883924160079
34600000,97.0381797608,140.69422612,75.2101565812,0.7735,0.2065,0.576,0.008,0.204,0.212,0.0399991373361,0.008,0.204,0.212,0.0399991373361,0.008,0.204,0.212,0.0399991373361,0.008,0.204,0.212,0.0399991373361,0.008,0.204,0.212,0.0399991373361,0.008,0.204,0.212,0.0399991373361
34600000,97.2549141626,141.246975274,75.258883607,0.7555,0.197,0.568,0.0115,0.1925,0.204,0.0606579380764,0.0115,0.1925,0.204,0.0606579380764,0.0115,0.1925,0.204,0.0606579380764,0.0115,0.1925,0.204,0.0606579380764,0.0115,0.1925,0.204,0.0606579380764,0.0115,0.1925,0.204,0.0606579380764
34600000,98.4212167663,142.526227068,76.3687116153,0.7525,0.183,0.569,0.019,0.175,0.194,0.108495670996,0.019,0.175,0.194,0.108495670996,0.019,0.175,0.194,0.108495670996,0.019,0.175,0.194,0.108495670996,0.019,0.175,0.194,0.108495670996,0.019,0.175,0.194,0.108495670996
34600000,98.4243251922,143.075666383,76.098654597,0.775,0.1845,0.593,0.0135,0.1755,0.189,0.077178030303,0.0135,0.1755,0.189,0.077178030303,0.0135,0.1755,0.189,0.077178030303,0.0135,0.1755,0.189,0.077178030303,0.0135,0.1755,0.189,0.077178030303,0.0135,0.1755,0.189,0.077178030303
34600000,98.4961998764,143.713335076,75.8876322766,0.756,0.1865,0.5695,0.011,0.1825,0.1935,0.0620196530523,0.011,0.1825,0.1935,0.0620196530523,0.011,0.1825,0.1935,0.0620196530523,0.011,0.1825,0.1935,0.0620196530523,0.011,0.1825,0.1935,0.0620196530523,0.011,0.1825,0.1935,0.0620196530523
34600000,98.7696290754,142.705907299,76.8014899638,0.764,0.18,0.5635,0.0095,0.176,0.1855,0.055,0.0095,0.176,0.1855,0.055,0.0095,0.176,0.1855,0.055,0.0095,0.176,0.1855,0.055,0.0095,0.176,0.1855,0.055,0.0095,0.176,0.1855,0.055
34600000,98.7913801655,144.023028858,76.1755558191,0.812,0.304,0.6,0.032,0.284,0.316,0.184803921569,0.008,0.284,0.292,0.0348039215686,0.008,0.284,0.292,0.0348039215686,0.008,0.284,0.292,0.0348039215686,0.008,0.284,0.292,0.0348039215686,0.008,0.284,0.292,0.0348039215686
34600000,98.8275243423,143.852532665,76.3150201808,0.739,0.181,0.554,0.0265,0.179,0.2055,0.147156738189,0.0265,0.179,0.2055,0.147156738189,0.0265,0.179,0.2055,0.147156738189,0.0265,0.179,0.2055,0.147156738189,0.0265,0.179,0.2055,0.147156738189,0.0265,0.179,0.2055,0.147156738189
34600000,98.8362705208,143.585579371,76.4616160957,0.7545,0.188,0.58,0.0175,0.1775,0.195,0.0986907114625,0.0175,0.1775,0.195,0.0986907114625,0.0175,0.1775,0.195,0.0986907114625,0.0175,0.1775,0.195,0.0986907114625,0.0175,0.1775,0.195,0.0986907114625,0.0175,0.1775,0.195,0.0986907114625
34600000,98.847943506,144.654526466,75.9446520258,0.778,0.1845,0.5875,0.015,0.182,0.197,0.0837553524374,0.015,0.182,0.197,0.0837553524374,0.015,0.182,0.197,0.0837553524374,0.015,0.182,0.197,0.0837553524374,0.015,0.182,0.197,0.0837553524374,0.015,0.182,0.197,0.0837553524374
34600000,98.9391055437,144.36574535,76.2257856408,0.759,0.187,0.5695,0.026,0.182,0.208,0.140110342556,0.026,0.182,0.208,0.140110342556,0.026,0.182,0.208,0.140110342556,0.026,0.182,0.208,0.140110342556,0.026,0.182,0.208,0.140110342556,0.026,0.182,0.208,0.140110342556
34600000,98.9677360213,143.658701705,76.6222531794,0.751,0.1915,0.565,0.008,0.1815,0.1895,0.0441946640316,0.008,0.1815,0.1895,0.0441946640316,0.008,0.1815,0.1895,0.0441946640316,0.008,0.1815,0.1895,0.0441946640316,0.008,0.1815,0.1895,0.0441946640316,0.008,0.1815,0.1895,0.0441946640316
34600000,99.0694378825,142.813334155,77.1974897462,0.7635,0.1915,0.5745,0.012,0.178,0.19,0.0668801759834,0.012,0.178,0.19,0.0668801759834,0.012,0.178,0.19,0.0668801759834,0.012,0.178,0.19,0.0668801759834,0.012,0.178,0.19,0.0668801759834,0.012,0.178,0.19,0.0668801759834
34600000,99.1193661884,142.910903791,77.2235973871,0.7565,0.189,0.562,0.0145,0.161,0.1755,0.0941615347512,0.0145,0.161,0.1755,0.0941615347512,0.0145,0.161,0.1755,0.0941615347512,0.0145,0.161,0.1755,0.0941615347512,0.0145,0.161,0.1755,0.0941615347512,0.0145,0.161,0.1755,0.0941615347512
34600000,99.1658546754,144.398847842,76.549358092,0.7535,0.1825,0.5695,0.047,0.1785,0.2255,0.271636198946,0.047,0.1785,0.2255,0.271636198946,0.047,0.1785,0.2255,0.271636198946,0.047,0.1785,0.2255,0.271636198946,0.047,0.1785,0.2255,0.271636198946,0.047,0.1785,0.2255,0.271636198946
34600000,99.4018121029,144.93508454,76.6351758846,0.7325,0.1845,0.5495,0.0175,0.174,0.1915,0.098611895351,0.0175,0.174,0.1915,0.098611895351,0.0175,0.174,0.1915,0.098611895351,0.0175,0.174,0.1915,0.098611895351,0.0175,0.174,0.1915,0.098611895351,0.0175,0.174,0.1915,0.098611895351
34600000,99.4525337846,143.571169278,77.3932160381,0.7695,0.1905,0.5845,0.024,0.186,0.21,0.132825734049,0.024,0.186,0.21,0.132825734049,0.024,0.186,0.21,0.132825734049,0.023,0.186,0.209,0.12739095144,0.023,0.186,0.209,0.12739095144,0.023,0.186,0.209,0.12739095144
34600000,99.7078906231,145.515333828,76.8041690207,0.7605,0.188,0.5705,0.0175,0.183,0.2005,0.0961822788196,0.0175,0.183,0.2005,0.0961822788196,0.0175,0.183,0.2005,0.0961822788196,0.0175,0.183,0.2005,0.0961822788196,0.0175,0.183,0.2005,0.0961822788196,0.0175,0.18,0.1975,0.0992187160665
34600000,99.7800881824,144.45468926,77.4427876434,0.748,0.1845,0.566,0.0095,0.1815,0.191,0.0521568558253,0.0095,0.1815,0.191,0.0521568558253,0.0095,0.1815,0.191,0.0521568558253,0.0095,0.1815,0.191,0.0521568558253,0.0095,0.1815,0.191,0.0521568558253,0.0095,0.1815,0.191,0.0521568558253
34600000,100.014010899,145.513402841,77.2643149279,0.7455,0.1785,0.569,0.0135,0.1665,0.18,0.083140472228,0.0135,0.1665,0.18,0.083140472228,0.0135,0.1665,0.18,0.083140472228,0.0135,0.1665,0.18,0.083140472228,0.0135,0.1665,0.18,0.083140472228,0.0135,0.1665,0.18,0.083140472228
34600000,100.252356398,145.118988288,77.8190404526,0.748,0.1865,0.565,0.015,0.183,0.198,0.0819922830792,0.015,0.183,0.198,0.0819922830792,0.015,0.183,0.198,0.0819922830792,0.015,0.183,0.198,0.0819922830792,0.015,0.183,0.198,0.0819922830792,0.015,0.183,0.198,0.0819922830792
34600000,100.392813098,144.786434281,78.196002507,0.705,0.1735,0.534,0.014,0.1665,0.1805,0.0835163610899,0.014,0.1665,0.1805,0.0835163610899,0.014,0.1665,0.1805,0.0835163610899,0.014,0.1665,0.1805,0.0835163610899,0.014,0.1665,0.1805,0.0835163610899,0.014,0.1665,0.1805,0.0835163610899
34600000,100.919306546,145.638067076,78.5599262817,0.746,0.18,0.5635,0.017,0.178,0.195,0.098602484472,0.017,0.178,0.195,0.098602484472,0.017,0.178,0.195,0.098602484472,0.017,0.178,0.195,0.098602484472,0.017,0.178,0.195,0.098602484472,0.017,0.178,0.195,0.098602484472
34600000,101.026224582,146.309623502,78.3845251225,0.758,0.188,0.574,0.0115,0.181,0.1925,0.0634446169772,0.0115,0.181,0.1925,0.0634446169772,0.0115,0.181,0.1925,0.0634446169772,0.0115,0.181,0.1925,0.0634446169772,0.0115,0.181,0.1925,0.0634446169772,0.0115,0.181,0.1925,0.0634446169772
34600000,101.443701317,148.107385405,78.1118592725,0.7395,0.1735,0.563,0.011,0.1705,0.1815,0.0655117908407,0.011,0.1705,0.1815,0.0655117908407,0.011,0.1705,0.1815,0.0655117908407,0.011,0.169,0.18,0.0660078225868,0.011,0.169,0.18,0.0660078225868,0.011,0.169,0.18,0.0660078225868
34600000,101.590829732,147.100812586,78.8358383044,0.7555,0.1805,0.572,0.0155,0.1795,0.195,0.085597826087,0.0155,0.1795,0.195,0.085597826087,0.0155,0.1795,0.195,0.085597826087,0.0155,0.1795,0.195,0.085597826087,0.0155,0.1795,0.195,0.085597826087,0.0155,0.1795,0.195,0.085597826087
34600000,101.892208104,146.802988597,79.4368178576,0.7445,0.1875,0.558,0.013,0.1875,0.2005,0.0702463297572,0.013,0.1875,0.2005,0.0702463297572,0.012,0.1875,0.1995,0.0645645115754,0.012,0.1875,0.1995,0.0645645115754,0.012,0.1875,0.1995,0.0645645115754,0.012,0.1875,0.1995,0.0645645115754
34600000,102.397335138,147.068289263,80.0618580761,0.742,0.2865,0.5425,0.009,0.2835,0.2925,0.0392317193676,0.009,0.2835,0.2925,0.0392317193676,0.009,0.2835,0.2925,0.0392317193676,0.009,0.2835,0.2925,0.0392317193676,0.009,0.2835,0.2925,0.0392317193676,0.009,0.2835,0.2925,0.0392317193676
34600000,102.420420659,148.307669609,79.4767961844,0.704,0.1835,0.5235,0.0175,0.1825,0.2,0.0957498117824,0.0175,0.1825,0.2,0.0957498117824,0.0175,0.1825,0.2,0.0957498117824,0.0175,0.1825,0.2,0.0957498117824,0.0175,0.1825,0.2,0.0957498117824,0.0175,0.1825,0.2,0.0957498117824
34600000,102.471573708,147.39757575,80.0085726868,0.716,0.178,0.537,0.014,0.1635,0.1775,0.0916504329004,0.014,0.1635,0.1775,0.0916504329004,0.014,0.1635,0.1775,0.0916504329004,0.014,0.1635,0.1775,0.0916504329004,0.014,0.1635,0.1775,0.0916504329004,0.012,0.1635,0.1755,0.0760254329004
34600000,102.736166158,147.244334023,80.4820822252,0.7005,0.1785,0.526,0.017,0.1705,0.1875,0.0981809555179,0.017,0.1705,0.1875,0.0981809555179,0.017,0.1705,0.1875,0.0981809555179,0.017,0.1705,0.1875,0.0981809555179,0.017,0.1705,0.1875,0.0981809555179,0.017,0.1705,0.1875,0.0981809555179
34600000,103.164913772,148.559636973,80.4675521718,0.736,0.179,0.5575,0.0105,0.1695,0.18,0.0614848014305,0.0105,0.1695,0.18,0.0614848014305,0.0105,0.1695,0.18,0.0614848014305,0.0105,0.1695,0.18,0.0614848014305,0.0105,0.1695,0.18,0.0614848014305,0.0105,0.1695,0.18,0.0614848014305
34600000,103.267494077,148.949750066,80.4263660826,0.7315,0.1825,0.5515,0.0235,0.17,0.1935,0.136359519104,0.0235,0.17,0.1935,0.136359519104,0.0235,0.17,0.1935,0.136359519104,0.0235,0.17,0.1935,0.136359519104,0.0235,0.17,0.1935,0.136359519104,0.0235,0.17,0.1935,0.136359519104
34600000,103.638211902,149.167165753,80.8737349772,0.7455,0.185,0.5645,0.0135,0.184,0.1975,0.0727470355731,0.0135,0.184,0.1975,0.0727470355731,0.0135,0.184,0.1975,0.0727470355731,0.0135,0.184,0.1975,0.0727470355731,0.0135,0.184,0.1975,0.0727470355731,0.0135,0.184,0.1975,0.0727470355731
34600000,103.645519864,149.559308384,80.6886256042,0.7425,0.2065,0.537,0.008,0.1955,0.2035,0.0411801739927,0.008,0.1955,0.2035,0.0411801739927,0.008,0.1955,0.2035,0.0411801739927,0.008,0.1955,0.2035,0.0411801739927,0.008,0.1955,0.2035,0.0411801739927,0.008,0.1955,0.2035,0.0411801739927
34600000,103.901385045,148.808061401,81.4480468668,0.7205,0.1995,0.534,0.009,0.187,0.196,0.0484257429366,0.009,0.187,0.196,0.0484257429366,0.009,0.187,0.196,0.0484257429366,0.009,0.186,0.195,0.048643134241,0.009,0.186,0.195,0.048643134241,0.009,0.186,0.195,0.048643134241
34600000,104.015064311,149.778118763,81.1335370849,0.723,0.191,0.5325,0.0175,0.1865,0.204,0.0959038101487,0.0175,0.1865,0.204,0.0959038101487,0.0175,0.1865,0.204,0.0959038101487,0.0175,0.1865,0.204,0.0959038101487,0.0175,0.1865,0.204,0.0959038101487,0.0175,0.1865,0.204,0.0959038101487
34600000,104.760887149,148.700427197,82.791117125,0.739,0.1825,0.5605,0.01,0.1735,0.1835,0.0570813923395,0.01,0.1735,0.1835,0.0570813923395,0.01,0.1735,0.1835,0.0570813923395,0.01,0.1735,0.1835,0.0570813923395,0.01,0.1735,0.1835,0.0570813923395,0.01,0.1735,0.1835,0.0570813923395
34600000,105.610923787,149.754563931,83.5391037155,0.733,0.193,0.5365,0.014,0.1805,0.1945,0.07639745671,0.014,0.1805,0.1945,0.07639745671,0.014,0.1805,0.1945,0.07639745671,0.014,0.1805,0.1945,0.07639745671,0.014,0.1805,0.1945,0.07639745671,0.014,0.1805,0.1945,0.07639745671
34640000,100.635199017,144.135779769,78.8849086409,0.81,0.1935,0.615,0.0135,0.1825,0.196,0.0757663592446,0.0135,0.1825,0.196,0.0757663592446,0.0135,0.1825,0.196,0.0757663592446,0.0135,0.1825,0.196,0.0757663592446,0.0135,0.1815,0.195,0.0760251584165,0.0135,0.1815,0.195,0.0760251584165
34640000,102.497666359,147.967633214,79.7626829321,0.808,0.193,0.604,0.016,0.176,0.192,0.0915332674572,0.016,0.176,0.192,0.0915332674572,0.016,0.176,0.192,0.0915332674572,0.016,0.176,0.192,0.0915332674572,0.016,0.176,0.192,0.0915332674572,0.016,0.176,0.192,0.0915332674572
34640000,103.091380922,140.193428306,84.5403572301,0.721,0.195,0.543,0.011,0.188,0.199,0.0609362557732,0.011,0.188,0.199,0.0609362557732,0.011,0.188,0.199,0.0609362557732,0.011,0.188,0.199,0.0609362557732,0.011,0.188,0.199,0.0609362557732,0.011,0.188,0.199,0.0609362557732
34640000,104.03479572,149.267901556,81.4182428024,0.8585,0.1895,0.6675,0.0135,0.1845,0.198,0.0727637398833,0.0135,0.1845,0.198,0.0727637398833,0.0135,0.1845,0.198,0.0727637398833,0.0135,0.1845,0.198,0.0727637398833,0.0135,0.1845,0.198,0.0727637398833,0.0135,0.1845,0.198,0.0727637398833
34640000,104.504794168,147.294119821,83.1101313413,0.8015,0.1845,0.6105,0.018,0.183,0.201,0.0983407444005,0.018,0.183,0.201,0.0983407444005,0.018,0.183,0.201,0.0983407444005,0.018,0.183,0.201,0.0983407444005,0.018,0.183,0.201,0.0983407444005,0.018,0.183,0.201,0.0983407444005
34640000,104.557355767,149.250504693,82.2107813034,0.7875,0.192,0.5955,0.008,0.176,0.184,0.0456845238095,0.008,0.176,0.184,0.0456845238095,0.008,0.176,0.184,0.0456845238095,0.008,0.176,0.184,0.0456845238095,0.008,0.176,0.184,0.0456845238095,0.008,0.176,0.184,0.0456845238095
34640000,105.062299315,149.656326681,82.7652856322,0.799,0.1935,0.6085,0.01,0.1875,0.1975,0.053514957265,0.01,0.1875,0.1975,0.053514957265,0.01,0.1875,0.1975,0.053514957265,0.01,0.1875,0.1975,0.053514957265,0.01,0.1875,0.1975,0.053514957265,0.01,0.1875,0.1975,0.053514957265
34640000,105.404988221,149.718228906,83.2483678777,0.8145,0.217,0.6255,0.0225,0.2075,0.23,0.120788226591,0.0225,0.2075,0.23,0.120788226591,0.0225,0.2075,0.23,0.120788226591,0.0225,0.2075,0.23,0.120788226591,0.0225,0.2075,0.23,0.120788226591,0.0225,0.2075,0.23,0.120788226591
34640000,106.086384096,148.959161149,84.6499955696,0.8135,0.1875,0.6115,0.01,0.1825,0.1925,0.0565307971014,0.01,0.1825,0.1925,0.0565307971014,0.01,0.1825,0.1925,0.0565307971014,0.01,0.1825,0.1925,0.0565307971014,0.01,0.1825,0.1925,0.0565307971014,0.01,0.1825,0.1925,0.0565307971014
34760000,99.3988333595,146.691312022,75.7525940282,0.732,0.1895,0.5545,0.009,0.1865,0.1955,0.0484651771337,0.009,0.1865,0.1955,0.0484651771337,0.009,0.1865,0.1955,0.0484651771337,0.009,0.1865,0.1955,0.0484651771337,0.009,0.1865,0.1955,0.0484651771337,0.009,0.1865,0.1955,0.0484651771337
34760000,100.610947799,147.556364805,77.1382392957,0.7215,0.172,0.5485,0.01,0.1675,0.1775,0.0594143384028,0.01,0.1675,0.1775,0.0594143384028,0.01,0.1675,0.1775,0.0594143384028,0.01,0.1675,0.1775,0.0594143384028,0.01,0.1675,0.1775,0.0594143384028,0.01,0.1675,0.1775,0.0594143384028
34760000,100.61453758,147.633292102,77.1051603184,0.7335,0.185,0.557,0.0115,0.1775,0.189,0.066654510948,0.0115,0.1775,0.189,0.066654510948,0.0115,0.1775,0.189,0.066654510948,0.0115,0.1775,0.189,0.066654510948,0.0115,0.1775,0.189,0.066654510948,0.0115,0.1775,0.189,0.066654510948
34760000,101.067382265,148.921006065,77.1405703644,0.7505,0.182,0.5665,0.014,0.169,0.183,0.0838438735178,0.014,0.169,0.183,0.0838438735178,0.014,0.169,0.183,0.0838438735178,0.014,0.169,0.183,0.0838438735178,0.014,0.169,0.183,0.0838438735178,0.014,0.169,0.183,0.0838438735178
34760000,101.259779485,149.530516239,77.1244111085,0.745,0.178,0.5425,0.018,0.177,0.195,0.104325475249,0.018,0.177,0.195,0.104325475249,0.018,0.177,0.195,0.104325475249,0.018,0.177,0.195,0.104325475249,0.018,0.177,0.195,0.104325475249,0.018,0.177,0.195,0.104325475249
34760000,102.097135223,150.247785549,78.0218100601,0.733,0.1845,0.543,0.017,0.18,0.197,0.0967882589379,0.017,0.18,0.197,0.0967882589379,0.017,0.18,0.197,0.0967882589379,0.017,0.18,0.197,0.0967882589379,0.017,0.18,0.197,0.0967882589379,0.017,0.18,0.197,0.0967882589379
34760000,102.454660004,143.347230109,82.0083749514,0.7235,0.252,0.4955,0.0155,0.238,0.2535,0.0722338935574,0.0155,0.238,0.2535,0.0722338935574,0.0155,0.238,0.2535,0.0722338935574,0.0155,0.236,0.2515,0.0735496830311,0.0155,0.236,0.2515,0.0735496830311,0.0155,0.236,0.2515,0.0735496830311
34760000,102.803298598,150.263993865,79.072950965,0.7155,0.19,0.552,0.0165,0.1895,0.206,0.0879249011858,0.0165,0.1895,0.206,0.0879249011858,0.0165,0.1895,0.206,0.0879249011858,0.0165,0.1895,0.206,0.0879249011858,0.0165,0.1895,0.206,0.0879249011858,0.0165,0.1895,0.206,0.0879249011858
34760000,103.621584871,150.099158339,80.3827981373,0.7045,0.1835,0.519,0.0135,0.175,0.1885,0.0784632034632,0.013,0.175,0.188,0.0756222943723,0.013,0.175,0.188,0.0756222943723,0.013,0.175,0.188,0.0756222943723,0.013,0.175,0.188,0.0756222943723,0.013,0.175,0.188,0.0756222943723
34760000,103.67091416,149.992440549,80.5101509659,0.705,0.1645,0.4745,0.0105,0.1605,0.171,0.065376984127,0.0105,0.1605,0.171,0.065376984127,0.0105,0.1605,0.171,0.065376984127,0.0105,0.1605,0.171,0.065376984127,0.0105,0.1605,0.171,0.065376984127,0.0105,0.1605,0.171,0.065376984127
34760000,104.97339044,150.40721769,82.2564768157,0.6955,0.186,0.528,0.013,0.1825,0.1955,0.07709818776,0.013,0.1825,0.1955,0.07709818776,0.013,0.1825,0.1955,0.07709818776,0.013,0.1825,0.1955,0.07709818776,0.013,0.1825,0.1955,0.07709818776,0.013,0.1825,0.1955,0.07709818776
34760000,105.324581124,144.367035261,85.803354055,0.713,0.265,0.4255,0.009,0.2605,0.2695,0.039529692691,0.009,0.2605,0.2695,0.039529692691,0.009,0.2605,0.2695,0.039529692691,0.009,0.2605,0.2695,0.039529692691,0.009,0.2605,0.2695,0.039529692691,0.009,0.2605,0.2695,0.039529692691
34760000,105.367189919,149.696141754,83.2027140012,0.718,0.182,0.536,0.026,0.178,0.204,0.147826086957,0.026,0.178,0.204,0.147826086957,0.026,0.178,0.204,0.147826086957,0.026,0.178,0.204,0.147826086957,0.026,0.178,0.204,0.147826086957,0.026,0.178,0.204,0.147826086957
34760000,105.459447687,145.869886595,85.2542282331,0.726,0.1895,0.516,0.014,0.1875,0.2015,0.0748608366271,0.014,0.1875,0.2015,0.0748608366271,0.014,0.1875,0.2015,0.0748608366271,0.014,0.1875,0.2015,0.0748608366271,0.014,0.1875,0.2015,0.0748608366271,0.014,0.1875,0.2015,0.0748608366271
34760000,105.878690938,147.298541169,85.1687658221,0.7215,0.196,0.5275,0.0155,0.1815,0.197,0.0851569264069,0.0155,0.1815,0.197,0.0851569264069,0.0155,0.1815,0.197,0.0851569264069,0.0155,0.1815,0.197,0.0851569264069,0.0155,0.1815,0.197,0.0851569264069,0.0155,0.1815,0.197,0.0851569264069
34760000,106.151478916,150.211270374,84.1215831868,0.7165,0.1745,0.5415,0.018,0.168,0.186,0.107846320346,0.018,0.168,0.186,0.107846320346,0.018,0.168,0.186,0.107846320346,0.018,0.168,0.186,0.107846320346,0.018,0.168,0.186,0.107846320346,0.018,0.168,0.186,0.107846320346
34760000,106.312506042,141.379155614,88.7791812556,0.743,0.172,0.505,0.0155,0.1625,0.178,0.0927220690648,0.0155,0.1625,0.178,0.0927220690648,0.0155,0.1625,0.178,0.0927220690648,0.0155,0.1625,0.178,0.0927220690648,0.0155,0.1625,0.178,0.0927220690648,0.0155,0.1625,0.178,0.0927220690648
34760000,106.448114224,150.403553424,84.470394624,0.673,0.183,0.497,0.03,0.16,0.19,0.194078947368,0.03,0.16,0.19,0.194078947368,0.03,0.16,0.19,0.194078947368,0.03,0.16,0.19,0.194078947368,0.03,0.16,0.19,0.194078947368,0.03,0.16,0.19,0.194078947368
34760000,106.473983314,145.933982846,86.7439835478,0.709,0.233,0.477,0.0105,0.2325,0.243,0.0452448054819,0.0105,0.2325,0.243,0.0452448054819,0.0105,0.2325,0.243,0.0452448054819,0.0105,0.2325,0.243,0.0452448054819,0.0105,0.2325,0.243,0.0452448054819,0.0105,0.2325,0.243,0.0452448054819
34760000,106.518424065,150.375325629,84.5899732831,0.779,0.1765,0.597,0.0265,0.172,0.1985,0.155979437229,0.0265,0.172,0.1985,0.155979437229,0.0265,0.172,0.1985,0.155979437229,0.0265,0.172,0.1985,0.155979437229,0.0265,0.172,0.1985,0.155979437229,0.0265,0.172,0.1985,0.155979437229
34760000,107.362178845,147.636586604,87.2249749649,0.7225,0.2,0.408,0.0185,0.195,0.2135,0.0970964170692,0.0185,0.195,0.2135,0.0970964170692,0.0185,0.195,0.2135,0.0970964170692,0.0185,0.1945,0.213,0.0974669704289,0.0185,0.1945,0.213,0.0974669704289,0.0185,0.1945,0.213,0.0974669704289
34760000,107.409491258,150.236491439,85.9959911674,0.711,0.175,0.5305,0.0115,0.1425,0.154,0.0796101774043,0.0115,0.1425,0.154,0.0796101774043,0.0115,0.1425,0.154,0.0796101774043,0.0115,0.1425,0.154,0.0796101774043,0.0115,0.1425,0.154,0.0796101774043,0.0115,0.1425,0.154,0.0796101774043
34760000,107.515353065,149.65212099,86.446969103,0.7095,0.179,0.5335,0.01,0.179,0.189,0.0524034992785,0.01,0.179,0.189,0.0524034992785,0.01,0.179,0.189,0.0524034992785,0.01,0.179,0.189,0.0524034992785,0.01,0.179,0.189,0.0524034992785,0.01,0.179,0.189,0.0524034992785
34760000,107.582476185,147.786654555,87.4803870008,0.702,0.192,0.515,0.0135,0.173,0.1865,0.0772997835498,0.0135,0.173,0.1865,0.0772997835498,0.0135,0.173,0.1865,0.0772997835498,0.0135,0.173,0.1865,0.0772997835498,0.0135,0.173,0.1865,0.0772997835498,0.0135,0.173,0.1865,0.0772997835498
34760000,107.715677767,150.112162899,86.5174352003,0.765,0.1815,0.5865,0.021,0.1805,0.2015,0.116230237154,0.021,0.1805,0.2015,0.116230237154,0.021,0.1805,0.2015,0.116230237154,0.02,0.1805,0.2005,0.110548418972,0.02,0.1805,0.2005,0.110548418972,0.02,0.1805,0.2005,0.110548418972
34760000,108.001725999,150.448044504,86.7785667463,0.7035,0.178,0.5265,0.0255,0.177,0.2025,0.147266139657,0.0255,0.177,0.2025,0.147266139657,0.0255,0.177,0.2025,0.147266139657,0.0255,0.177,0.2025,0.147266139657,0.0255,0.177,0.2025,0.147266139657,0.0255,0.177,0.2025,0.147266139657
34760000,108.027131099,147.75198471,88.1647042941,0.6695,0.235,0.477,0.021,0.232,0.253,0.102242664743,0.021,0.232,0.253,0.102242664743,0.021,0.232,0.253,0.102242664743,0.021,0.232,0.253,0.102242664743,0.021,0.232,0.253,0.102242664743,0.021,0.232,0.253,0.102242664743
34760000,108.042636727,148.85323316,87.6373385103,0.717,0.2015,0.5135,0.027,0.193,0.22,0.139673913043,0.027,0.193,0.22,0.139673913043,0.027,0.193,0.22,0.139673913043,0.027,0.193,0.22,0.139673913043,0.027,0.1895,0.2165,0.143562801932,0.027,0.1895,0.2165,0.143562801932
34760000,108.146874975,150.068779863,87.1859225316,0.752,0.1815,0.5695,0.0105,0.1745,0.185,0.0600766986637,0.0105,0.1745,0.185,0.0600766986637,0.0105,0.174,0.1845,0.0602002164502,0.0105,0.174,0.1845,0.0602002164502,0.0105,0.174,0.1845,0.0602002164502,0.0105,0.174,0.1845,0.0602002164502
34760000,108.304468148,150.277200443,87.3181020004,0.6865,0.1745,0.5115,0.0165,0.1695,0.186,0.0975378787879,0.0165,0.1695,0.186,0.0975378787879,0.0165,0.1695,0.186,0.0975378787879,0.0165,0.1695,0.186,0.0975378787879,0.0165,0.1695,0.186,0.0975378787879,0.0165,0.1695,0.186,0.0975378787879
34760000,108.63100039,150.182148813,87.8554261782,0.726,0.1875,0.542,0.0155,0.187,0.2025,0.0830194805195,0.0155,0.187,0.2025,0.0830194805195,0.0155,0.187,0.2025,0.0830194805195,0.0155,0.187,0.2025,0.0830194805195,0.0155,0.187,0.2025,0.0830194805195,0.0155,0.187,0.2025,0.0830194805195
34760000,108.693753609,150.073427441,88.0039166927,0.7595,0.1835,0.578,0.014,0.164,0.178,0.0863726551227,0.014,0.164,0.178,0.0863726551227,0.014,0.164,0.178,0.0863726551227,0.014,0.164,0.178,0.0863726551227,0.014,0.164,0.178,0.0863726551227,0.014,0.164,0.178,0.0863726551227
34760000,108.795816974,149.705800959,88.3408249813,0.734,0.1895,0.541,0.011,0.1885,0.1995,0.0574210662526,0.011,0.1885,0.1995,0.0574210662526,0.011,0.1885,0.1995,0.0574210662526,0.011,0.1885,0.1995,0.0574210662526,0.011,0.1885,0.1995,0.0574210662526,0.011,0.1885,0.1995,0.0574210662526
34760000,109.064919198,150.771259758,88.2117489173,0.666,0.169,0.502,0.0195,0.158,0.1775,0.129934210526,0.0195,0.158,0.1775,0.129934210526,0.0195,0.158,0.1775,0.129934210526,0.0195,0.158,0.1775,0.129934210526,0.0195,0.158,0.1775,0.129934210526,0.0195,0.158,0.1775,0.129934210526
34760000,109.148797571,149.480656353,88.9828681806,0.6935,0.208,0.4905,0.008,0.2035,0.2115,0.0393349358974,0.008,0.2035,0.2115,0.0393349358974,0.008,0.2035,0.2115,0.0393349358974,0.008,0.2035,0.2115,0.0393349358974,0.008,0.2035,0.2115,0.0393349358974,0.008,0.2035,0.2115,0.0393349358974
34760000,109.715627747,150.186025731,89.480428755,0.7305,0.1745,0.555,0.0135,0.172,0.1855,0.0792748917749,0.0135,0.172,0.1855,0.0792748917749,0.0135,0.172,0.1855,0.0792748917749,0.0135,0.172,0.1855,0.0792748917749,0.0135,0.172,0.1855,0.0792748917749,0.0135,0.172,0.1855,0.0792748917749
34760000,109.786961526,149.130435543,90.1152245182,0.6745,0.219,0.476,0.0155,0.2135,0.229,0.0654840452581,0.0155,0.2135,0.229,0.0654840452581,0.0155,0.2135,0.229,0.0654840452581,0.0155,0.2135,0.229,0.0654840452581,0.0155,0.2135,0.229,0.0654840452581,0.0155,0.2135,0.229,0.0654840452581
34760000,111.506857582,149.77683271,92.3718700182,0.7035,0.1865,0.514,0.0165,0.175,0.1915,0.0950028232637,0.0165,0.175,0.1915,0.0950028232637,0.0165,0.175,0.1915,0.0950028232637,0.0165,0.175,0.1915,0.0950028232637,0.0165,0.175,0.1915,0.0950028232637,0.0165,0.175,0.1915,0.0950028232637
34800000,104.347682932,148.456727089,82.2931608534,0.6765,0.182,0.476,0.0205,0.167,0.1875,0.124876482213,0.0205,0.167,0.1875,0.124876482213,0.0205,0.167,0.1875,0.124876482213,0.0205,0.167,0.1875,0.124876482213,0.0205,0.167,0.1875,0.124876482213,0.0205,0.167,0.1875,0.124876482213
34800000,104.577271793,148.775671334,82.4780720216,0.69,0.174,0.488,0.022,0.168,0.19,0.135807806324,0.022,0.168,0.19,0.135807806324,0.022,0.168,0.19,0.135807806324,0.022,0.168,0.19,0.135807806324,0.022,0.168,0.19,0.135807806324,0.022,0.168,0.19,0.135807806324
34800000,104.92376858,149.254345804,82.7584799687,0.679,0.1845,0.4925,0.0145,0.1845,0.199,0.0780583003953,0.0145,0.1845,0.199,0.0780583003953,0.0145,0.1845,0.199,0.0780583003953,0.0145,0.1845,0.199,0.0780583003953,0.0145,0.1845,0.199,0.0780583003953,0.0145,0.1845,0.199,0.0780583003953
34800000,105.006328833,146.360594681,84.3291959088,0.6935,0.2035,0.47,0.01,0.197,0.207,0.0534490523183,0.01,0.197,0.207,0.0534490523183,0.01,0.197,0.207,0.0534490523183,0.01,0.197,0.207,0.0534490523183,0.01,0.197,0.207,0.0534490523183,0.01,0.197,0.207,0.0534490523183
34800000,105.436512114,146.423140416,84.9431979624,0.609,0.1505,0.4415,0.01,0.15,0.16,0.0660037878788,0.01,0.15,0.16,0.0660037878788,0.01,0.15,0.16,0.0660037878788,0.01,0.15,0.16,0.0660037878788,0.01,0.15,0.16,0.0660037878788,0.01,0.15,0.16,0.0660037878788
34800000,105.950520473,148.078502451,84.8865294842,0.6855,0.191,0.5035,0.024,0.1825,0.2065,0.132367665206,0.024,0.1825,0.2065,0.132367665206,0.024,0.1825,0.2065,0.132367665206,0.0235,0.1825,0.206,0.130351536174,0.0235,0.1825,0.206,0.130351536174,0.0235,0.1825,0.206,0.130351536174
34800000,106.460671768,148.670746746,85.3556342787,0.6495,0.1655,0.453,0.01,0.1645,0.1745,0.063244047619,0.01,0.1645,0.1745,0.063244047619,0.01,0.1645,0.1745,0.063244047619,0.01,0.1645,0.1745,0.063244047619,0.01,0.1645,0.1745,0.063244047619,0.01,0.1645,0.1745,0.063244047619
34800000,106.575222123,149.605966169,85.0598500998,0.6645,0.201,0.407,0.0165,0.194,0.2105,0.0852663369111,0.0165,0.194,0.2105,0.0852663369111,0.0165,0.194,0.2105,0.0852663369111,0.0165,0.194,0.2105,0.0852663369111,0.0165,0.194,0.2105,0.0852663369111,0.0165,0.194,0.2105,0.0852663369111
34800000,107.005070643,149.769970767,85.622620581,0.693,0.201,0.5005,0.0175,0.191,0.2085,0.100526059086,0.0175,0.191,0.2085,0.100526059086,0.0095,0.191,0.2005,0.0505260590858,0.0095,0.191,0.2005,0.0505260590858,0.0095,0.191,0.2005,0.0505260590858,0.0095,0.191,0.2005,0.0505260590858
34800000,107.046545205,150.113687445,85.5129740841,0.6735,0.201,0.4795,0.028,0.196,0.224,0.150585533126,0.028,0.196,0.224,0.150585533126,0.028,0.196,0.224,0.150585533126,0.028,0.196,0.224,0.150585533126,0.028,0.196,0.224,0.150585533126,0.028,0.196,0.224,0.150585533126
34800000,107.707753333,150.108963014,86.5071484931,0.6695,0.2395,0.4255,0.0125,0.2335,0.246,0.0595219498372,0.0125,0.2335,0.246,0.0595219498372,0.0125,0.2335,0.246,0.0595219498372,0.0125,0.2335,0.246,0.0595219498372,0.0125,0.2335,0.246,0.0595219498372,0.0125,0.2335,0.246,0.0595219498372
34800000,109.910325237,148.379832202,90.6755717545,0.603,0.1885,0.4295,0.0215,0.1785,0.2,0.120857919255,0.0215,0.1785,0.2,0.120857919255,0.0215,0.1785,0.2,0.120857919255,0.0215,0.1785,0.2,0.120857919255,0.0215,0.1785,0.2,0.120857919255,0.0215,0.1785,0.2,0.120857919255
34840000,90.6688946763,128.359185546,71.8237492416,0.6945,0.17,0.525,0.012,0.159,0.171,0.0761662679426,0.012,0.159,0.171,0.0761662679426,0.012,0.159,0.171,0.0761662679426,0.012,0.159,0.171,0.0761662679426,0.012,0.159,0.171,0.0761662679426,0.012,0.159,0.171,0.0761662679426
34840000,91.138633905,130.009894793,71.703003461,0.6865,0.171,0.521,0.0195,0.1575,0.177,0.122783521303,0.0195,0.1575,0.177,0.122783521303,0.0195,0.1575,0.177,0.122783521303,0.0195,0.1575,0.177,0.122783521303,0.0195,0.1575,0.177,0.122783521303,0.0195,0.1575,0.177,0.122783521303
34840000,91.9858286978,129.986310527,72.9855877832,0.688,0.167,0.5145,0.0145,0.1635,0.178,0.0887896825397,0.0145,0.1635,0.178,0.0887896825397,0.0145,0.1635,0.178,0.0887896825397,0.0145,0.1635,0.178,0.0887896825397,0.0145,0.1635,0.178,0.0887896825397,0.0145,0.1635,0.178,0.0887896825397
34840000,92.0471870419,129.318675425,73.4114428505,0.6875,0.1735,0.5135,0.0145,0.1725,0.187,0.0834933182759,0.0145,0.1725,0.187,0.0834933182759,0.0145,0.1725,0.187,0.0834933182759,0.0145,0.1725,0.187,0.0834933182759,0.0145,0.1725,0.187,0.0834933182759,0.0145,0.1725,0.187,0.0834933182759
34840000,92.0968913236,128.9018478,73.6944130853,0.6905,0.181,0.506,0.012,0.17,0.182,0.0724116161616,0.012,0.17,0.182,0.0724116161616,0.012,0.17,0.182,0.0724116161616,0.012,0.17,0.182,0.0724116161616,0.012,0.17,0.182,0.0724116161616,0.012,0.17,0.182,0.0724116161616
34840000,92.8694226612,130.642103688,73.9830821477,0.6885,0.1825,0.511,0.016,0.16,0.176,0.0959595959596,0.016,0.1595,0.1755,0.0963654401154,0.016,0.1595,0.1755,0.0963654401154,0.016,0.1595,0.1755,0.0963654401154,0.016,0.1595,0.1755,0.0963654401154,0.016,0.1595,0.1755,0.0963654401154
34840000,93.2667209902,133.20786992,73.2961465254,0.674,0.1705,0.4975,0.0145,0.1605,0.175,0.090155075188,0.0145,0.1605,0.175,0.090155075188,0.0145,0.1605,0.175,0.090155075188,0.0145,0.1605,0.175,0.090155075188,0.0145,0.1605,0.175,0.090155075188,0.0145,0.1605,0.175,0.090155075188
34840000,93.4039197892,132.040820136,74.0854696156,0.6915,0.2725,0.509,0.0245,0.268,0.2925,0.124696617778,0.0245,0.268,0.2925,0.124696617778,0.0245,0.268,0.2925,0.124696617778,0.0245,0.268,0.2925,0.124696617778,0.0245,0.268,0.2925,0.124696617778,0.0245,0.268,0.2925,0.124696617778
34840000,94.0706384231,129.115654496,76.5481303865,0.6525,0.202,0.4685,0.0175,0.1845,0.202,0.100465289355,0.0175,0.1845,0.202,0.100465289355,0.0175,0.1845,0.202,0.100465289355,0.017,0.1845,0.2015,0.0973402893546,0.017,0.1845,0.2015,0.0973402893546,0.017,0.1845,0.2015,0.0973402893546
34840000,94.1848611223,131.390350183,75.5821165919,0.6775,0.178,0.5025,0.029,0.166,0.195,0.17904040404,0.029,0.166,0.195,0.17904040404,0.029,0.166,0.195,0.17904040404,0.029,0.166,0.195,0.17904040404,0.029,0.166,0.195,0.17904040404,0.029,0.166,0.195,0.17904040404
34840000,94.2206210663,132.811480177,74.9251915111,0.6745,0.1755,0.4995,0.011,0.135,0.146,0.0819805194805,0.011,0.135,0.146,0.0819805194805,0.011,0.135,0.146,0.0819805194805,0.011,0.135,0.146,0.0819805194805,0.011,0.135,0.146,0.0819805194805,0.011,0.135,0.146,0.0819805194805
34840000,94.2324518656,133.978017031,74.3596692828,0.683,0.1715,0.511,0.0215,0.167,0.1885,0.128733766234,0.0215,0.167,0.1885,0.128733766234,0.0215,0.167,0.1885,0.128733766234,0.0215,0.167,0.1885,0.128733766234,0.0215,0.167,0.1885,0.128733766234,0.0215,0.167,0.1885,0.128733766234
34840000,94.3683103458,132.459727501,75.322601768,0.6835,0.1715,0.505,0.012,0.1625,0.1745,0.075778223969,0.012,0.1625,0.1745,0.075778223969,0.012,0.1625,0.1745,0.075778223969,0.012,0.1625,0.1745,0.075778223969,0.012,0.1625,0.1745,0.075778223969,0.012,0.1625,0.1745,0.075778223969
34840000,94.4467243295,136.329079913,73.5055465378,0.6915,0.17,0.5155,0.0265,0.1555,0.182,0.171893889135,0.0265,0.1555,0.182,0.171893889135,0.0265,0.1555,0.182,0.171893889135,0.0265,0.1555,0.182,0.171893889135,0.0265,0.1555,0.182,0.171893889135,0.0265,0.1555,0.182,0.171893889135
34840000,95.2810187733,131.4729029,77.18507671,0.652,0.204,0.472,0.015,0.201,0.216,0.0820932539683,0.015,0.201,0.216,0.0820932539683,0.015,0.201,0.216,0.0820932539683,0.015,0.201,0.216,0.0820932539683,0.015,0.201,0.216,0.0820932539683,0.015,0.201,0.216,0.0820932539683
34840000,95.4570417965,136.757686713,74.8067193384,0.667,0.172,0.4885,0.021,0.1695,0.1905,0.122947994987,0.021,0.1695,0.1905,0.122947994987,0.021,0.1695,0.1905,0.122947994987,0.021,0.1695,0.1905,0.122947994987,0.021,0.1695,0.1905,0.122947994987,0.021,0.169,0.19,0.123313492063
34840000,96.0456804219,136.919234319,75.6089034732,0.6735,0.1695,0.498,0.013,0.167,0.18,0.0787100919913,0.013,0.167,0.18,0.0787100919913,0.013,0.167,0.18,0.0787100919913,0.013,0.167,0.18,0.0787100919913,0.013,0.167,0.18,0.0787100919913,0.013,0.167,0.18,0.0787100919913
34840000,96.3357120788,133.93335868,77.5368887782,0.656,0.1905,0.416,0.018,0.19,0.208,0.0967594571714,0.018,0.19,0.208,0.0967594571714,0.018,0.19,0.208,0.0967594571714,0.018,0.19,0.208,0.0967594571714,0.018,0.19,0.208,0.0967594571714,0.018,0.19,0.208,0.0967594571714
34840000,96.4940278263,139.79962201,74.8412307343,0.6895,0.2155,0.5185,0.0145,0.2105,0.225,0.090701754386,0.0145,0.2105,0.225,0.090701754386,0.0145,0.2105,0.225,0.090701754386,0.0145,0.2105,0.225,0.090701754386,0.0145,0.2105,0.225,0.090701754386,0.0145,0.2105,0.225,0.090701754386
34840000,96.6180517797,137.757873771,76.0481407842,0.6685,0.1725,0.4985,0.022,0.164,0.186,0.135768398268,0.022,0.164,0.186,0.135768398268,0.022,0.164,0.186,0.135768398268,0.022,0.164,0.186,0.135768398268,0.022,0.164,0.186,0.135768398268,0.022,0.164,0.186,0.135768398268
34840000,96.8296253256,139.319167335,75.5848543207,0.6685,0.17,0.4965,0.0085,0.166,0.1745,0.0511093073593,0.0085,0.166,0.1745,0.0511093073593,0.0085,0.166,0.1745,0.0511093073593,0.0085,0.166,0.1745,0.0511093073593,0.0085,0.166,0.1745,0.0511093073593,0.0085,0.166,0.1745,0.0511093073593
34840000,97.8861448505,140.801745986,76.4283442828,0.669,0.176,0.492,0.0085,0.1715,0.18,0.0496482683983,0.0085,0.1715,0.18,0.0496482683983,0.0085,0.1715,0.18,0.0496482683983,0.0085,0.1715,0.18,0.0496482683983,0.0085,0.1705,0.179,0.0502748348143,0.0085,0.1705,0.179,0.0502748348143
34840000,98.5225812223,142.92039678,76.3236734436,0.6615,0.1595,0.498,0.0115,0.1525,0.164,0.0750509085213,0.0115,0.1525,0.164,0.0750509085213,0.0115,0.1525,0.164,0.0750509085213,0.0115,0.1525,0.164,0.0750509085213,0.0115,0.1525,0.164,0.0750509085213,0.0115,0.1525,0.164,0.0750509085213
34840000,98.7772197077,141.450615625,77.4405217492,0.6705,0.174,0.498,0.025,0.172,0.197,0.145873917749,0.025,0.172,0.197,0.145873917749,0.025,0.172,0.197,0.145873917749,0.025,0.172,0.197,0.145873917749,0.025,0.172,0.197,0.145873917749,0.025,0.172,0.197,0.145873917749
34840000,98.9517472761,136.747888138,80.053676845,0.6555,0.2,0.4465,0.0095,0.1965,0.206,0.050571865682,0.0095,0.1965,0.206,0.050571865682,0.0095,0.1965,0.206,0.050571865682,0.0095,0.1965,0.206,0.050571865682,0.0095,0.1965,0.206,0.050571865682,0.0095,0.1965,0.206,0.050571865682
34840000,99.187481403,142.326815095,77.6178145569,0.684,0.1785,0.5035,0.0085,0.17,0.1785,0.0504942672062,0.0085,0.17,0.1785,0.0504942672062,0.0085,0.17,0.1785,0.0504942672062,0.0085,0.17,0.1785,0.0504942672062,0.0085,0.17,0.1785,0.0504942672062,0.0085,0.17,0.1785,0.0504942672062
34840000,99.7683744492,144.3177667,77.4936783236,0.6665,0.168,0.5025,0.012,0.1645,0.1765,0.0738591269841,0.012,0.1645,0.1765,0.0738591269841,0.012,0.1645,0.1765,0.0738591269841,0.012,0.1645,0.1765,0.0738591269841,0.012,0.1645,0.1765,0.0738591269841,0.012,0.1645,0.1765,0.0738591269841
34840000,100.487340914,143.294277823,79.0838724599,0.6525,0.1615,0.489,0.0095,0.158,0.1675,0.0596915081822,0.0095,0.156,0.1655,0.0604225023343,0.0095,0.156,0.1655,0.0604225023343,0.0095,0.156,0.1655,0.0604225023343,0.0095,0.156,0.1655,0.0604225023343,0.0095,0.156,0.1655,0.0604225023343
34840000,100.502983215,144.491408996,78.508770324,0.6835,0.18,0.5055,0.026,0.174,0.2,0.150790513834,0.026,0.174,0.2,0.150790513834,0.026,0.174,0.2,0.150790513834,0.026,0.174,0.2,0.150790513834,0.026,0.174,0.2,0.150790513834,0.026,0.174,0.2,0.150790513834
34840000,100.577046993,145.914215151,77.9084629134,0.6785,0.1685,0.51,0.01,0.16,0.17,0.0630240373661,0.01,0.16,0.17,0.0630240373661,0.01,0.16,0.17,0.0630240373661,0.01,0.16,0.17,0.0630240373661,0.01,0.16,0.17,0.0630240373661,0.01,0.16,0.17,0.0630240373661
34840000,100.709726616,144.696757248,78.7162113001,0.666,0.175,0.5,0.011,0.1745,0.1855,0.0640594197945,0.011,0.1745,0.1855,0.0640594197945,0.011,0.1745,0.1855,0.0640594197945,0.011,0.1745,0.1855,0.0640594197945,0.011,0.1745,0.1855,0.0640594197945,0.011,0.1745,0.1855,0.0640594197945
34840000,101.348126051,146.920473389,78.5619523818,0.678,0.174,0.498,0.0205,0.1615,0.182,0.128609164958,0.0205,0.1615,0.182,0.128609164958,0.0205,0.1615,0.182,0.128609164958,0.0205,0.1615,0.182,0.128609164958,0.0205,0.1615,0.182,0.128609164958,0.0205,0.1615,0.182,0.128609164958
34840000,101.595612122,144.662210924,80.062312721,0.6615,0.175,0.489,0.0135,0.172,0.1855,0.0786661255411,0.0135,0.172,0.1855,0.0786661255411,0.0135,0.172,0.1855,0.0786661255411,0.0135,0.172,0.1855,0.0786661255411,0.0135,0.172,0.1855,0.0786661255411,0.0135,0.172,0.1855,0.0786661255411
34840000,101.901038145,147.244379587,79.2293674238,0.657,0.165,0.4905,0.0095,0.157,0.1665,0.0606203007519,0.0095,0.157,0.1665,0.0606203007519,0.0095,0.157,0.1665,0.0606203007519,0.0095,0.157,0.1665,0.0606203007519,0.0085,0.157,0.1655,0.0540413533835,0.0085,0.157,0.1655,0.0540413533835
34840000,102.230796344,145.78572506,80.4533319864,0.681,0.211,0.4875,0.017,0.211,0.228,0.0815350924047,0.017,0.211,0.228,0.0815350924047,0.017,0.211,0.228,0.0815350924047,0.017,0.211,0.228,0.0815350924047,0.017,0.211,0.228,0.0815350924047,0.017,0.211,0.228,0.0815350924047
34840000,102.622119548,145.403133243,81.2316127002,0.629,0.1665,0.461,0.01,0.162,0.172,0.0615124768443,0.01,0.162,0.172,0.0615124768443,0.01,0.162,0.172,0.0615124768443,0.01,0.162,0.172,0.0615124768443,0.01,0.162,0.172,0.0615124768443,0.01,0.162,0.172,0.0615124768443
34840000,102.821515532,147.866111785,80.2992174061,0.6465,0.1675,0.4785,0.022,0.145,0.167,0.162705406049,0.022,0.145,0.167,0.162705406049,0.022,0.145,0.167,0.162705406049,0.022,0.145,0.167,0.162705406049,0.022,0.145,0.167,0.162705406049,0.022,0.145,0.167,0.162705406049
34840000,102.986281771,148.343751838,80.3075467372,0.709,0.17,0.488,0.02,0.1695,0.1895,0.118114177489,0.02,0.1695,0.1895,0.118114177489,0.02,0.1695,0.1895,0.118114177489,0.02,0.1695,0.1895,0.118114177489,0.02,0.1675,0.1875,0.122500142401,0.02,0.1675,0.1875,0.122500142401
34840000,103.367099088,148.016615941,81.0423406613,0.6465,0.1725,0.4805,0.025,0.1645,0.1895,0.156615497076,0.025,0.1645,0.1895,0.156615497076,0.025,0.1645,0.1895,0.156615497076,0.025,0.1645,0.1895,0.156615497076,0.025,0.1645,0.1895,0.156615497076,0.025,0.1645,0.1895,0.156615497076
34840000,103.935196105,148.266755443,81.7694164356,0.6255,0.1705,0.441,0.0095,0.1635,0.173,0.0594302101561,0.0095,0.1635,0.173,0.0594302101561,0.0095,0.1635,0.173,0.0594302101561,0.0095,0.1635,0.173,0.0594302101561,0.0095,0.1635,0.173,0.0594302101561,0.0095,0.1635,0.173,0.0594302101561
34840000,104.579651728,150.063329558,81.8378128133,0.652,0.1715,0.4875,0.0085,0.166,0.1745,0.0511453823954,0.0085,0.166,0.1745,0.0511453823954,0.0085,0.166,0.1745,0.0511453823954,0.0085,0.166,0.1745,0.0511453823954,0.0085,0.166,0.1745,0.0511453823954,0.0085,0.166,0.1745,0.0511453823954
34920000,83.8891445951,95.3258050309,78.1708143773,0.7595,0.1735,0.581,0.0465,0.1725,0.219,0.267807302347,0.0465,0.1725,0.219,0.267807302347,0.0465,0.1725,0.219,0.267807302347,0.0465,0.1725,0.219,0.267807302347,0.0465,0.1725,0.219,0.267807302347,0.0465,0.1725,0.219,0.267807302347
34920000,87.046785599,97.2324465992,81.9539550989,0.754,0.1705,0.586,0.0205,0.1645,0.185,0.125577530783,0.0205,0.1645,0.185,0.125577530783,0.0205,0.1645,0.185,0.125577530783,0.0205,0.1645,0.185,0.125577530783,0.0205,0.1645,0.185,0.125577530783,0.0205,0.1645,0.185,0.125577530783
34920000,87.6493450231,98.5520529485,82.1979910603,0.756,0.168,0.588,0.016,0.164,0.18,0.0964285714286,0.016,0.164,0.18,0.0964285714286,0.016,0.164,0.18,0.0964285714286,0.008,0.164,0.172,0.0488095238095,0.008,0.164,0.172,0.0488095238095,0.008,0.164,0.172,0.0488095238095
34920000,89.6735009324,100.149143992,84.4356794024,0.7445,0.1655,0.578,0.0135,0.165,0.1785,0.0808847402597,0.0135,0.165,0.1785,0.0808847402597,0.0135,0.165,0.1785,0.0808847402597,0.0135,0.145,0.1585,0.0892180735931,0.0135,0.145,0.1585,0.0892180735931,0.0135,0.145,0.1585,0.0892180735931
34920000,89.9714976846,102.34492454,83.7847842569,0.75,0.1655,0.59,0.017,0.1635,0.1805,0.10376984127,0.017,0.1635,0.1805,0.10376984127,0.017,0.1635,0.1805,0.10376984127,0.017,0.1635,0.1805,0.10376984127,0.017,0.1635,0.1805,0.10376984127,0.017,0.1635,0.1805,0.10376984127
34920000,90.0277296139,102.353485259,83.8648517915,0.747,0.1615,0.5845,0.0265,0.16,0.1865,0.172123993138,0.0265,0.16,0.1865,0.172123993138,0.0265,0.16,0.1865,0.172123993138,0.0265,0.154,0.1805,0.173918251511,0.0265,0.154,0.1805,0.173918251511,0.0265,0.152,0.1785,0.176424517175
34920000,90.2412886931,102.813701172,83.9550824535,0.754,0.17,0.585,0.01,0.1655,0.1755,0.0617232000456,0.01,0.1655,0.1755,0.0617232000456,0.01,0.1655,0.1755,0.0617232000456,0.01,0.1655,0.1755,0.0617232000456,0.01,0.1655,0.1755,0.0617232000456,0.01,0.1655,0.1755,0.0617232000456
34920000,90.4323900893,101.145448917,85.0758606752,0.7345,0.1715,0.5605,0.0205,0.1695,0.19,0.120853331451,0.0205,0.1695,0.19,0.120853331451,0.0205,0.1695,0.19,0.120853331451,0.0205,0.1695,0.19,0.120853331451,0.0205,0.1695,0.19,0.120853331451,0.0205,0.1695,0.19,0.120853331451
34920000,91.7213045322,103.600273401,85.7818200977,0.75,0.1675,0.5815,0.0125,0.1535,0.166,0.0801645658263,0.0125,0.1485,0.161,0.0894651610644,0.0125,0.1485,0.161,0.0894651610644,0.0125,0.1485,0.161,0.0894651610644,0.0125,0.1485,0.161,0.0894651610644,0.0125,0.1485,0.161,0.0894651610644
34920000,92.7524356765,105.558443934,86.3494315476,0.8255,0.167,0.5605,0.0335,0.162,0.1955,0.208067042607,0.0335,0.162,0.1955,0.208067042607,0.0335,0.162,0.1955,0.208067042607,0.0335,0.162,0.1955,0.208067042607,0.0335,0.162,0.1955,0.208067042607,0.0335,0.162,0.1955,0.208067042607
34920000,93.0374975834,104.565936347,87.2732782015,0.735,0.166,0.57,0.039,0.161,0.2,0.245642515379,0.039,0.161,0.2,0.245642515379,0.039,0.161,0.2,0.245642515379,0.035,0.161,0.196,0.222915242652,0.035,0.161,0.196,0.222915242652,0.035,0.161,0.196,0.222915242652
34960000,89.5330456583,106.224845948,81.1871455136,0.7355,0.184,0.5525,0.032,0.18,0.212,0.179368412385,0.032,0.18,0.212,0.179368412385,0.032,0.18,0.212,0.179368412385,0.032,0.18,0.212,0.179368412385,0.032,0.18,0.212,0.179368412385,0.032,0.18,0.212,0.179368412385
34960000,89.9342789637,108.282027259,80.7604048158,0.7395,0.1745,0.5665,0.03,0.1705,0.2005,0.176701016375,0.03,0.1705,0.2005,0.176701016375,0.03,0.1705,0.2005,0.176701016375,0.018,0.1705,0.1885,0.105272444946,0.018,0.1705,0.1885,0.105272444946,0.018,0.1705,0.1885,0.105272444946
34960000,90.2697751924,106.552392192,82.1284666927,0.7055,0.1695,0.5375,0.0085,0.1635,0.172,0.0530505952381,0.0085,0.1635,0.172,0.0530505952381,0.0085,0.1635,0.172,0.0530505952381,0.0085,0.1635,0.172,0.0530505952381,0.0085,0.1635,0.172,0.0530505952381,0.0085,0.1635,0.172,0.0530505952381
34960000,91.371122644,107.667953924,83.2227070039,0.608,0.167,0.463,0.0145,0.1625,0.177,0.0970563554803,0.0145,0.1625,0.177,0.0970563554803,0.0145,0.1625,0.177,0.0970563554803,0.0145,0.1625,0.177,0.0970563554803,0.0145,0.1625,0.177,0.0970563554803,0.0145,0.1625,0.177,0.0970563554803
34960000,92.0695156956,108.850865778,83.6788406544,0.641,0.176,0.463,0.013,0.175,0.188,0.0741477272727,0.013,0.175,0.188,0.0741477272727,0.013,0.175,0.188,0.0741477272727,0.013,0.175,0.188,0.0741477272727,0.013,0.175,0.188,0.0741477272727,0.013,0.175,0.188,0.0741477272727
34960000,92.5477362855,111.346659864,83.1482744965,0.7485,0.1735,0.5775,0.027,0.1495,0.1765,0.196639924086,0.027,0.1495,0.1765,0.196639924086,0.027,0.1495,0.1765,0.196639924086,0.027,0.1495,0.1765,0.196639924086,0.027,0.1495,0.1765,0.196639924086,0.027,0.1495,0.1765,0.196639924086
34960000,92.7597185884,108.570513182,84.8543212916,0.743,0.19,0.565,0.0155,0.19,0.2055,0.0830862977602,0.0155,0.19,0.2055,0.0830862977602,0.0155,0.19,0.2055,0.0830862977602,0.0155,0.19,0.2055,0.0830862977602,0.0155,0.19,0.2055,0.0830862977602,0.0155,0.19,0.2055,0.0830862977602
34960000,93.3270493005,111.743965478,84.118591212,0.7345,0.2,0.463,0.026,0.1975,0.2235,0.140576552547,0.026,0.1975,0.2235,0.140576552547,0.026,0.1975,0.2235,0.140576552547,0.026,0.1975,0.2235,0.140576552547,0.026,0.1975,0.2235,0.140576552547,0.026,0.1975,0.2235,0.140576552547
34960000,93.3398106255,108.629777493,85.6948271916,0.7005,0.174,0.5175,0.014,0.16,0.174,0.0894115083104,0.014,0.157,0.171,0.091041943093,0.014,0.157,0.171,0.091041943093,0.014,0.157,0.171,0.091041943093,0.014,0.153,0.167,0.0939659197012,0.014,0.153,0.167,0.0939659197012
34960000,93.804019452,107.859406667,86.7763258445,0.7415,0.1765,0.563,0.01,0.1745,0.1845,0.0569887539996,0.01,0.1745,0.1845,0.0569887539996,0.01,0.1745,0.1845,0.0569887539996,0.01,0.1665,0.1765,0.0592614812724,0.01,0.1665,0.1765,0.0592614812724,0.01,0.1665,0.1765,0.0592614812724
34960000,95.0153971654,115.214411415,84.9158900406,0.7335,0.181,0.495,0.015,0.178,0.193,0.0837426226857,0.015,0.178,0.193,0.0837426226857,0.015,0.178,0.193,0.0837426226857,0.015,0.178,0.193,0.0837426226857,0.015,0.178,0.193,0.0837426226857,0.015,0.178,0.193,0.0837426226857
34960000,95.0851970966,113.205436729,86.0250772803,0.7465,0.189,0.5685,0.0165,0.182,0.1985,0.0904892973507,0.0165,0.182,0.1985,0.0904892973507,0.0165,0.182,0.1985,0.0904892973507,0.0165,0.182,0.1985,0.0904892973507,0.0165,0.182,0.1985,0.0904892973507,0.0165,0.182,0.1985,0.0904892973507
34960000,95.1715896302,112.388525224,86.5631218335,0.7465,0.1775,0.5705,0.0095,0.1685,0.178,0.0570207347953,0.0095,0.1685,0.178,0.0570207347953,0.0095,0.1685,0.178,0.0570207347953,0.0095,0.1685,0.178,0.0570207347953,0.0095,0.1685,0.178,0.0570207347953,0.0095,0.1685,0.178,0.0570207347953
34960000,95.7045454115,115.954998298,85.5793189681,0.735,0.1915,0.5415,0.0135,0.187,0.2005,0.068152409185,0.0135,0.187,0.2005,0.068152409185,0.0135,0.187,0.2005,0.068152409185,0.0135,0.187,0.2005,0.068152409185,0.0135,0.187,0.2005,0.068152409185,0.0135,0.187,0.2005,0.068152409185
34960000,95.8545698029,110.216203113,88.6737531479,0.7395,0.2455,0.525,0.0085,0.2375,0.246,0.0394295397585,0.0085,0.2375,0.246,0.0394295397585,0.0085,0.2375,0.246,0.0394295397585,0.0085,0.2375,0.246,0.0394295397585,0.0085,0.2375,0.246,0.0394295397585,0.0085,0.2375,0.246,0.0394295397585
34960000,96.083848565,115.933423212,86.1590612415,0.7295,0.1845,0.554,0.0125,0.1765,0.189,0.0704327375523,0.0125,0.1765,0.189,0.0704327375523,0.0125,0.1765,0.189,0.0704327375523,0.0125,0.1765,0.189,0.0704327375523,0.0125,0.1765,0.189,0.0704327375523,0.0125,0.1765,0.189,0.0704327375523
34960000,100.397142384,119.723999245,90.7337139535,0.711,0.1635,0.541,0.014,0.159,0.173,0.0882205513784,0.014,0.159,0.173,0.0882205513784,0.014,0.159,0.173,0.0882205513784,0.014,0.159,0.173,0.0882205513784,0.014,0.159,0.173,0.0882205513784,0.014,0.159,0.173,0.0882205513784
35000000,101.94715592,128.663164192,88.5891517837,0.6785,0.164,0.5125,0.0105,0.161,0.1715,0.0646825396825,0.0105,0.161,0.1715,0.0646825396825,0.0105,0.161,0.1715,0.0646825396825,0.0105,0.161,0.1715,0.0646825396825,0.0105,0.161,0.1715,0.0646825396825,0.0105,0.161,0.1715,0.0646825396825
35000000,102.278691541,125.07272379,90.8816754165,0.689,0.165,0.516,0.0105,0.153,0.1635,0.0680210720652,0.0105,0.153,0.1635,0.0680210720652,0.0095,0.153,0.1625,0.0623392538834,0.0095,0.153,0.1625,0.0623392538834,0.0095,0.153,0.1625,0.0623392538834,0.0095,0.153,0.1625,0.0623392538834
35000000,104.463143811,129.279251664,92.0550898847,0.6665,0.171,0.493,0.0245,0.1575,0.182,0.157346491228,0.0245,0.1575,0.182,0.157346491228,0.0245,0.1575,0.182,0.157346491228,0.0245,0.1575,0.182,0.157346491228,0.0245,0.1575,0.182,0.157346491228,0.0245,0.1575,0.182,0.157346491228
35000000,105.511147452,122.300020249,97.1167110537,0.6805,0.1715,0.508,0.0145,0.1575,0.172,0.0925395876054,0.0145,0.1575,0.172,0.0925395876054,0.0145,0.1575,0.172,0.0925395876054,0.0145,0.1575,0.172,0.0925395876054,0.0145,0.1575,0.172,0.0925395876054,0.0145,0.1575,0.172,0.0925395876054
35000000,106.475895663,128.847875971,95.2899055096,0.679,0.173,0.476,0.013,0.165,0.178,0.079346092504,0.013,0.165,0.178,0.079346092504,0.013,0.165,0.178,0.079346092504,0.013,0.165,0.178,0.079346092504,0.013,0.165,0.178,0.079346092504,0.013,0.165,0.178,0.079346092504
35040000,87.2470516394,129.398354686,66.1714001159,0.763,0.313,0.437,0.017,0.305,0.322,0.0584732654437,0.017,0.305,0.322,0.0584732654437,0.017,0.305,0.322,0.0584732654437,0.017,0.305,0.322,0.0584732654437,0.017,0.305,0.322,0.0584732654437,0.017,0.305,0.322,0.0584732654437
35080000,88.357681274,136.92510406,64.0739698812,0.768,0.19,0.468,0.01,0.152,0.162,0.0680591077011,0.01,0.152,0.162,0.0680591077011,0.01,0.152,0.162,0.0680591077011,0.01,0.152,0.162,0.0680591077011,0.01,0.152,0.162,0.0680591077011,0.01,0.152,0.162,0.0680591077011
35080000,89.3704211044,139.273030149,64.4191165819,0.7765,0.1895,0.59,0.016,0.1875,0.2035,0.0838907469342,0.016,0.1875,0.2035,0.0838907469342,0.016,0.1875,0.2035,0.0838907469342,0.016,0.1875,0.2035,0.0838907469342,0.016,0.1875,0.2035,0.0838907469342,0.016,0.1875,0.2035,0.0838907469342
35080000,90.9314364776,140.565559253,66.11437509,0.7625,0.195,0.5605,0.009,0.1925,0.2015,0.0470606884058,0.009,0.1925,0.2015,0.0470606884058,0.009,0.1925,0.2015,0.0470606884058,0.009,0.1925,0.2015,0.0470606884058,0.009,0.1925,0.2015,0.0470606884058,0.009,0.1925,0.2015,0.0470606884058
35120000,86.7215659551,133.839584284,63.1625567905,0.7515,0.189,0.568,0.0235,0.187,0.2105,0.126237060041,0.0235,0.187,0.2105,0.126237060041,0.0235,0.187,0.2105,0.126237060041,0.0235,0.187,0.2105,0.126237060041,0.0235,0.187,0.2105,0.126237060041,0.0235,0.187,0.2105,0.126237060041
35120000,87.0028899266,133.278101851,63.8652839643,0.783,0.2035,0.593,0.017,0.1935,0.2105,0.0844038208169,0.017,0.1935,0.2105,0.0844038208169,0.017,0.1935,0.2105,0.0844038208169,0.017,0.1935,0.2105,0.0844038208169,0.017,0.1935,0.2105,0.0844038208169,0.017,0.1935,0.2105,0.0844038208169
35120000,87.2528778854,135.730000126,63.0143167652,0.771,0.185,0.5865,0.0095,0.1785,0.188,0.0526593379447,0.0095,0.1785,0.188,0.0526593379447,0.0095,0.1785,0.188,0.0526593379447,0.0095,0.1785,0.188,0.0526593379447,0.0095,0.1785,0.188,0.0526593379447,0.0095,0.1785,0.188,0.0526593379447
35120000,87.4392893991,135.985981684,63.1659432568,0.7935,0.2015,0.5925,0.0155,0.199,0.2145,0.0796816724942,0.0155,0.199,0.2145,0.0796816724942,0.0155,0.199,0.2145,0.0796816724942,0.0155,0.199,0.2145,0.0796816724942,0.0155,0.199,0.2145,0.0796816724942,0.0155,0.199,0.2145,0.0796816724942
35120000,87.4478619475,136.500844209,62.9213708166,0.8065,0.1965,0.6075,0.0185,0.1925,0.211,0.0959375,0.0185,0.1925,0.211,0.0959375,0.0185,0.1925,0.211,0.0959375,0.0185,0.1925,0.211,0.0959375,0.0185,0.1925,0.211,0.0959375,0.0185,0.1925,0.211,0.0959375
35120000,88.1039700992,136.543972357,63.8839689705,0.776,0.1965,0.5795,0.0095,0.1765,0.186,0.0533423913043,0.0095,0.1765,0.186,0.0533423913043,0.0095,0.1765,0.186,0.0533423913043,0.0095,0.1765,0.186,0.0533423913043,0.0095,0.1765,0.186,0.0533423913043,0.0095,0.1765,0.186,0.0533423913043
35120000,88.7089306002,137.283640787,64.4215755065,0.7805,0.19,0.594,0.014,0.1845,0.1985,0.0770460358056,0.014,0.1845,0.1985,0.0770460358056,0.014,0.1845,0.1985,0.0770460358056,0.014,0.1845,0.1985,0.0770460358056,0.014,0.1845,0.1985,0.0770460358056,0.014,0.1845,0.1985,0.0770460358056
35120000,88.8886886286,136.807556022,64.9292549317,0.7885,0.192,0.6015,0.0115,0.18,0.1915,0.0627367424242,0.0115,0.18,0.1915,0.0627367424242,0.0115,0.176,0.1875,0.0638731060606,0.0115,0.176,0.1875,0.0638731060606,0.0115,0.176,0.1875,0.0638731060606,0.0115,0.176,0.1875,0.0638731060606
35120000,88.9431348219,136.874519956,64.9774422546,0.7625,0.194,0.5755,0.013,0.1935,0.2065,0.0663916337286,0.013,0.1935,0.2065,0.0663916337286,0.013,0.1935,0.2065,0.0663916337286,0.013,0.1915,0.2045,0.067261198946,0.013,0.1915,0.2045,0.067261198946,0.013,0.1915,0.2045,0.067261198946
35120000,89.0879928874,139.086556725,64.0887109687,0.7705,0.194,0.5785,0.022,0.1895,0.2115,0.116527503294,0.022,0.1895,0.2115,0.116527503294,0.022,0.1895,0.2115,0.116527503294,0.022,0.1895,0.2115,0.116527503294,0.022,0.1895,0.2115,0.116527503294,0.022,0.1895,0.2115,0.116527503294
35120000,89.3883348331,138.362458825,64.9012728374,0.7845,0.192,0.589,0.0115,0.188,0.1995,0.0618432971014,0.0115,0.188,0.1995,0.0618432971014,0.0115,0.188,0.1995,0.0618432971014,0.0115,0.188,0.1995,0.0618432971014,0.0115,0.188,0.1995,0.0618432971014,0.0115,0.188,0.1995,0.0618432971014
35120000,89.4812346127,138.009385717,65.2171590608,0.784,0.1905,0.592,0.033,0.1835,0.2165,0.179601449275,0.033,0.1835,0.2165,0.179601449275,0.033,0.1835,0.2165,0.179601449275,0.033,0.1835,0.2165,0.179601449275,0.033,0.1835,0.2165,0.179601449275,0.033,0.1835,0.2165,0.179601449275
35120000,89.7553887298,139.22343596,65.0213651145,0.7645,0.187,0.57,0.0135,0.181,0.1945,0.0749703557312,0.0135,0.181,0.1945,0.0749703557312,0.0135,0.181,0.1945,0.0749703557312,0.0135,0.181,0.1945,0.0749703557312,0.0135,0.181,0.1945,0.0749703557312,0.0135,0.181,0.1945,0.0749703557312
35120000,89.8265383498,137.576590058,65.9515124955,0.774,0.1935,0.577,0.0085,0.1755,0.184,0.048455615942,0.0085,0.1755,0.184,0.048455615942,0.0085,0.1755,0.184,0.048455615942,0.0085,0.1755,0.184,0.048455615942,0.0085,0.1755,0.184,0.048455615942,0.0085,0.1755,0.184,0.048455615942
35120000,89.9795513014,139.748532393,65.0950607558,0.7915,0.1935,0.5935,0.011,0.1875,0.1985,0.0587096508564,0.011,0.1875,0.1985,0.0587096508564,0.0105,0.1875,0.198,0.0562096508564,0.0105,0.1875,0.198,0.0562096508564,0.0105,0.1855,0.196,0.0567507763975,0.0105,0.1855,0.196,0.0567507763975
35120000,90.2823954854,141.285872221,64.7806571173,0.799,0.187,0.61,0.019,0.1815,0.2005,0.103231460568,0.019,0.1815,0.2005,0.103231460568,0.019,0.1815,0.2005,0.103231460568,0.019,0.1815,0.2005,0.103231460568,0.019,0.1815,0.2005,0.103231460568,0.019,0.1815,0.2005,0.103231460568
35120000,90.326398649,141.241886903,64.8686545221,0.7865,0.1955,0.593,0.0135,0.1875,0.201,0.0746433865048,0.0135,0.1875,0.201,0.0746433865048,0.0135,0.1875,0.201,0.0746433865048,0.0135,0.1875,0.201,0.0746433865048,0.0135,0.1875,0.201,0.0746433865048,0.0135,0.1875,0.201,0.0746433865048
35120000,90.474133716,139.743310127,65.8395455107,0.7455,0.191,0.5505,0.018,0.189,0.207,0.0946763833992,0.018,0.189,0.207,0.0946763833992,0.018,0.189,0.207,0.0946763833992,0.018,0.189,0.207,0.0946763833992,0.018,0.189,0.207,0.0946763833992,0.018,0.189,0.207,0.0946763833992
35120000,90.862612163,138.979286768,66.8042748604,0.711,0.197,0.5225,0.013,0.177,0.19,0.0758514492754,0.013,0.177,0.19,0.0758514492754,0.013,0.175,0.188,0.076268115942,0.013,0.175,0.188,0.076268115942,0.013,0.172,0.185,0.0770833333333,0.013,0.172,0.185,0.0770833333333
35120000,90.8908330364,140.194088059,66.2392055252,0.7425,0.1845,0.456,0.0195,0.1765,0.196,0.108153365751,0.0195,0.1765,0.196,0.108153365751,0.0195,0.1765,0.196,0.108153365751,0.0195,0.1765,0.196,0.108153365751,0.0195,0.1765,0.196,0.108153365751,0.0185,0.1765,0.195,0.102718583143
35120000,91.0649635444,141.430647442,65.8821215957,0.7665,0.1845,0.581,0.016,0.1655,0.1815,0.0939554295819,0.016,0.1655,0.1815,0.0939554295819,0.016,0.1655,0.1815,0.0939554295819,0.016,0.1655,0.1815,0.0939554295819,0.016,0.1655,0.1815,0.0939554295819,0.016,0.1655,0.1815,0.0939554295819
35120000,91.371259453,142.241905615,65.9359363719,0.8005,0.2035,0.608,0.0085,0.2,0.2085,0.043333788575,0.0085,0.2,0.2085,0.043333788575,0.0085,0.2,0.2085,0.043333788575,0.0085,0.2,0.2085,0.043333788575,0.0085,0.2,0.2085,0.043333788575,0.0085,0.2,0.2085,0.043333788575
35120000,91.3826020633,141.880534528,66.1336358311,0.7705,0.1855,0.591,0.018,0.1775,0.1955,0.0967708333333,0.018,0.1775,0.1955,0.0967708333333,0.018,0.1775,0.1955,0.0967708333333,0.018,0.1775,0.1955,0.0967708333333,0.018,0.1775,0.1955,0.0967708333333,0.018,0.1775,0.1955,0.0967708333333
35120000,91.5032433752,140.525502123,66.9921140013,0.7575,0.1875,0.5755,0.021,0.187,0.208,0.110517539526,0.021,0.187,0.208,0.110517539526,0.021,0.187,0.208,0.110517539526,0.021,0.187,0.208,0.110517539526,0.021,0.187,0.208,0.110517539526,0.019,0.187,0.206,0.100100872859
35120000,91.5868668806,141.656991339,66.5518046514,0.772,0.1945,0.581,0.0215,0.1865,0.208,0.11571557971,0.0215,0.1865,0.208,0.11571557971,0.0215,0.1865,0.208,0.11571557971,0.0215,0.1865,0.208,0.11571557971,0.0215,0.1845,0.206,0.116621376812,0.0215,0.1845,0.206,0.116621376812
35120000,92.1097636175,140.922102938,67.7035939571,0.7625,0.187,0.569,0.019,0.181,0.2,0.109019151139,0.019,0.181,0.2,0.109019151139,0.019,0.181,0.2,0.109019151139,0.019,0.181,0.2,0.109019151139,0.019,0.181,0.2,0.109019151139,0.019,0.181,0.2,0.109019151139
35120000,92.1443454101,142.744630869,66.8442026808,0.774,0.213,0.585,0.019,0.1995,0.2185,0.10615628333,0.019,0.1995,0.2185,0.10615628333,0.019,0.1995,0.2185,0.10615628333,0.019,0.1995,0.2185,0.10615628333,0.019,0.1995,0.2185,0.10615628333,0.019,0.1995,0.2185,0.10615628333
35120000,92.3647707932,143.682176249,66.7060680653,0.7765,0.183,0.589,0.0225,0.163,0.1855,0.139204545455,0.0225,0.163,0.1855,0.139204545455,0.0225,0.163,0.1855,0.139204545455,0.0225,0.163,0.1855,0.139204545455,0.0225,0.163,0.1855,0.139204545455,0.0215,0.163,0.1845,0.133522727273
35120000,92.3778316756,143.389064209,66.872215409,0.7805,0.188,0.586,0.031,0.182,0.213,0.167940245895,0.031,0.182,0.213,0.167940245895,0.031,0.182,0.213,0.167940245895,0.031,0.182,0.213,0.167940245895,0.019,0.182,0.201,0.102722854591,0.019,0.182,0.201,0.102722854591
35120000,92.6661945876,144.238173992,66.8802048854,0.8,0.336,0.538,0.012,0.3235,0.3355,0.0431035902503,0.012,0.3235,0.3355,0.0431035902503,0.012,0.3235,0.3355,0.0431035902503,0.012,0.3235,0.3355,0.0431035902503,0.012,0.3235,0.3355,0.0431035902503,0.012,0.3235,0.3355,0.0431035902503
35120000,92.6742280174,142.958754667,67.5319646927,0.754,0.2005,0.559,0.023,0.193,0.216,0.122613997879,0.023,0.193,0.216,0.122613997879,0.023,0.193,0.216,0.122613997879,0.023,0.193,0.216,0.122613997879,0.023,0.189,0.212,0.130895571378,0.023,0.189,0.212,0.130895571378
35120000,92.9549132781,144.856172832,67.004283501,0.7755,0.1835,0.5915,0.0155,0.174,0.1895,0.0903003246753,0.0155,0.174,0.1895,0.0903003246753,0.0155,0.174,0.1895,0.0903003246753,0.0155,0.174,0.1895,0.0903003246753,0.0155,0.174,0.1895,0.0903003246753,0.0155,0.174,0.1895,0.0903003246753
35120000,93.1278097329,145.720808548,66.8313103252,0.7865,0.184,0.6015,0.0105,0.184,0.1945,0.0570652173913,0.0105,0.184,0.1945,0.0570652173913,0.0105,0.18,0.1905,0.0580533596838,0.0105,0.18,0.1905,0.0580533596838,0.0105,0.18,0.1905,0.0580533596838,0.0105,0.18,0.1905,0.0580533596838
35120000,93.2741856927,144.291608514,67.7654742823,0.748,0.1795,0.57,0.012,0.165,0.177,0.073417238749,0.012,0.165,0.177,0.073417238749,0.012,0.165,0.177,0.073417238749,0.012,0.165,0.177,0.073417238749,0.012,0.165,0.177,0.073417238749,0.012,0.165,0.177,0.073417238749
35120000,93.5427315673,145.537936261,67.5451292203,0.757,0.181,0.5735,0.0085,0.18,0.1885,0.0474896480331,0.0085,0.18,0.1885,0.0474896480331,0.0085,0.18,0.1885,0.0474896480331,0.0085,0.18,0.1885,0.0474896480331,0.0085,0.18,0.1885,0.0474896480331,0.0085,0.18,0.1885,0.0474896480331
35120000,93.6602808615,145.025810822,67.9775158812,0.7625,0.183,0.5405,0.0295,0.165,0.1945,0.182020794328,0.0295,0.165,0.1945,0.182020794328,0.0295,0.165,0.1945,0.182020794328,0.0295,0.165,0.1945,0.182020794328,0.0295,0.165,0.1945,0.182020794328,0.0295,0.165,0.1945,0.182020794328
35120000,93.9035069211,145.849754008,67.9303833777,0.7475,0.182,0.564,0.0125,0.1775,0.19,0.0701539855072,0.0125,0.1775,0.19,0.0701539855072,0.0125,0.1775,0.19,0.0701539855072,0.0125,0.1775,0.19,0.0701539855072,0.0125,0.1775,0.19,0.0701539855072,0.0125,0.1775,0.19,0.0701539855072
35120000,94.092761435,146.918068979,67.6801076628,0.7955,0.18,0.613,0.0185,0.1695,0.188,0.114220209615,0.0185,0.1695,0.188,0.114220209615,0.0185,0.1695,0.188,0.114220209615,0.0185,0.1695,0.188,0.114220209615,0.0185,0.1695,0.188,0.114220209615,0.0185,0.1695,0.188,0.114220209615
35120000,94.2275015324,146.661279718,68.0106124395,0.7705,0.188,0.5875,0.026,0.178,0.204,0.142727743271,0.026,0.178,0.204,0.142727743271,0.026,0.178,0.204,0.142727743271,0.026,0.178,0.204,0.142727743271,0.026,0.178,0.204,0.142727743271,0.026,0.178,0.204,0.142727743271
35120000,94.4345566194,147.065718612,68.1189756234,0.78,0.197,0.5905,0.016,0.19,0.206,0.0844029290602,0.016,0.19,0.206,0.0844029290602,0.016,0.19,0.206,0.0844029290602,0.016,0.19,0.206,0.0844029290602,0.016,0.19,0.206,0.0844029290602,0.016,0.19,0.206,0.0844029290602
35120000,94.4765024659,146.554825831,68.4373407834,0.7575,0.1945,0.565,0.012,0.192,0.204,0.0625362318841,0.012,0.192,0.204,0.0625362318841,0.012,0.192,0.204,0.0625362318841,0.008,0.192,0.2,0.0417028985507,0.008,0.192,0.2,0.0417028985507,0.008,0.192,0.2,0.0417028985507
35120000,94.6506123838,146.310008171,68.8209144904,0.7595,0.1915,0.5835,0.016,0.1885,0.2045,0.0844865336204,0.016,0.1885,0.2045,0.0844865336204,0.016,0.1885,0.2045,0.0844865336204,0.016,0.1885,0.2045,0.0844865336204,0.016,0.1885,0.2045,0.0844865336204,0.016,0.1885,0.2045,0.0844865336204
35120000,94.6575398867,146.126095722,68.9232619688,0.7635,0.1885,0.577,0.0175,0.183,0.2005,0.0941177672442,0.0175,0.183,0.2005,0.0941177672442,0.0175,0.183,0.2005,0.0941177672442,0.0175,0.183,0.2005,0.0941177672442,0.0175,0.183,0.2005,0.0941177672442,0.0175,0.183,0.2005,0.0941177672442
35120000,94.8605832017,145.951631801,69.3150589021,0.7665,0.1895,0.5825,0.011,0.1845,0.1955,0.059669384058,0.011,0.1845,0.1955,0.059669384058,0.011,0.1845,0.1955,0.059669384058,0.011,0.1845,0.1955,0.059669384058,0.011,0.1845,0.1955,0.059669384058,0.011,0.1845,0.1955,0.059669384058
35120000,95.0290449085,147.230818175,68.9281582754,0.7245,0.195,0.532,0.017,0.189,0.206,0.090662055336,0.017,0.189,0.206,0.090662055336,0.017,0.189,0.206,0.090662055336,0.017,0.189,0.206,0.090662055336,0.017,0.189,0.206,0.090662055336,0.017,0.189,0.206,0.090662055336
35120000,95.255925405,146.506411363,69.6306824258,0.757,0.1915,0.5695,0.0205,0.181,0.2015,0.114264245718,0.0205,0.181,0.2015,0.114264245718,0.0205,0.181,0.2015,0.114264245718,0.0205,0.169,0.1895,0.120785984848,0.0205,0.169,0.1895,0.120785984848,0.0205,0.169,0.1895,0.120785984848
35120000,95.5826024627,146.939462199,69.9041725947,0.762,0.1925,0.57,0.0145,0.1875,0.202,0.0770133399209,0.0145,0.1875,0.202,0.0770133399209,0.0145,0.1875,0.202,0.0770133399209,0.0145,0.1875,0.202,0.0770133399209,0.0145,0.1875,0.202,0.0770133399209,0.0145,0.1875,0.202,0.0770133399209
35120000,95.5830120635,148.107917283,69.3205594538,0.744,0.1895,0.553,0.0155,0.1805,0.196,0.083658008658,0.0155,0.1805,0.196,0.083658008658,0.0155,0.1805,0.196,0.083658008658,0.0155,0.1805,0.196,0.083658008658,0.0155,0.1805,0.196,0.083658008658,0.0155,0.1805,0.196,0.083658008658
35120000,95.7859956244,148.292079863,69.5329535051,0.76,0.1845,0.579,0.025,0.179,0.204,0.139622153209,0.025,0.179,0.204,0.139622153209,0.025,0.179,0.204,0.139622153209,0.025,0.179,0.204,0.139622153209,0.025,0.179,0.204,0.139622153209,0.024,0.179,0.203,0.133669772257
35120000,95.7907528062,147.261442156,70.0554081315,0.749,0.1915,0.5615,0.015,0.1905,0.2055,0.0798324275362,0.015,0.1905,0.2055,0.0798324275362,0.015,0.1905,0.2055,0.0798324275362,0.015,0.1905,0.2055,0.0798324275362,0.015,0.1905,0.2055,0.0798324275362,0.015,0.1905,0.2055,0.0798324275362
35120000,96.0398883275,147.702581767,70.2085416078,0.744,0.208,0.556,0.016,0.208,0.224,0.0824587706147,0.016,0.208,0.224,0.0824587706147,0.016,0.208,0.224,0.0824587706147,0.016,0.208,0.224,0.0824587706147,0.016,0.208,0.224,0.0824587706147,0.016,0.208,0.224,0.0824587706147
35120000,96.2867462934,148.166051267,70.3470938068,0.743,0.191,0.556,0.017,0.178,0.195,0.0946249176548,0.017,0.178,0.195,0.0946249176548,0.017,0.178,0.195,0.0946249176548,0.017,0.178,0.195,0.0946249176548,0.017,0.178,0.195,0.0946249176548,0.017,0.178,0.195,0.0946249176548
35120000,96.3664798422,147.594693022,70.7523732523,0.747,0.1935,0.5545,0.011,0.186,0.197,0.0589130434783,0.011,0.186,0.197,0.0589130434783,0.011,0.186,0.197,0.0589130434783,0.011,0.182,0.193,0.0599011857708,0.011,0.182,0.193,0.0599011857708,0.011,0.182,0.193,0.0599011857708
35120000,97.0282171879,149.077584512,71.0035335256,0.749,0.178,0.568,0.013,0.1675,0.1805,0.0769715791455,0.013,0.1675,0.1805,0.0769715791455,0.013,0.1675,0.1805,0.0769715791455,0.013,0.1675,0.1805,0.0769715791455,0.013,0.1675,0.1805,0.0769715791455,0.013,0.1675,0.1805,0.0769715791455
35120000,97.1243529746,149.848202065,70.7624284292,0.742,0.184,0.566,0.0185,0.1835,0.202,0.100790513834,0.0185,0.1835,0.202,0.100790513834,0.0185,0.1835,0.202,0.100790513834,0.0185,0.1835,0.202,0.100790513834,0.0185,0.1835,0.202,0.100790513834,0.0185,0.1835,0.202,0.100790513834
35120000,97.3078814713,148.074842096,71.924401159,0.725,0.197,0.54,0.015,0.1865,0.2015,0.0827455605988,0.015,0.1865,0.2015,0.0827455605988,0.015,0.1865,0.2015,0.0827455605988,0.013,0.1865,0.1995,0.0708407986941,0.013,0.1865,0.1995,0.0708407986941,0.013,0.1865,0.1995,0.0708407986941
35120000,97.5098076976,150.220687612,71.1543677406,0.7625,0.174,0.5915,0.0225,0.1715,0.194,0.127173479648,0.0225,0.1715,0.194,0.127173479648,0.0225,0.1715,0.194,0.127173479648,0.0225,0.1715,0.194,0.127173479648,0.0225,0.1715,0.194,0.127173479648,0.0225,0.1715,0.194,0.127173479648
35120000,97.7040358899,149.64844051,71.7318335796,0.7595,0.1795,0.5765,0.041,0.173,0.214,0.23924512987,0.041,0.173,0.214,0.23924512987,0.041,0.173,0.214,0.23924512987,0.041,0.173,0.214,0.23924512987,0.041,0.173,0.214,0.23924512987,0.041,0.173,0.214,0.23924512987
35120000,98.5265825867,150.074594757,72.7525765016,0.75,0.1805,0.566,0.018,0.168,0.186,0.108109881712,0.018,0.168,0.186,0.108109881712,0.018,0.168,0.186,0.108109881712,0.018,0.168,0.186,0.108109881712,0.018,0.168,0.186,0.108109881712,0.018,0.168,0.186,0.108109881712
35200000,89.0295382321,136.202547011,65.4430338427,0.73,0.196,0.538,0.01,0.182,0.192,0.0542261904762,0.01,0.182,0.192,0.0542261904762,0.01,0.182,0.192,0.0542261904762,0.01,0.182,0.192,0.0542261904762,0.009,0.182,0.191,0.0492261904762,0.009,0.182,0.191,0.0492261904762
35200000,89.450878616,140.344523709,64.0040560694,0.8215,0.2,0.62,0.036,0.183,0.219,0.194495341615,0.036,0.183,0.219,0.194495341615,0.036,0.183,0.219,0.194495341615,0.036,0.183,0.219,0.194495341615,0.036,0.183,0.219,0.194495341615,0.036,0.183,0.219,0.194495341615
35200000,90.0670794647,139.578459505,65.3113894443,0.7535,0.194,0.5535,0.024,0.1935,0.2175,0.120489130435,0.024,0.1935,0.2175,0.120489130435,0.024,0.1935,0.2175,0.120489130435,0.024,0.1935,0.2175,0.120489130435,0.024,0.1935,0.2175,0.120489130435,0.024,0.1935,0.2175,0.120489130435
35200000,90.5237687721,139.546683159,66.0123115786,0.774,0.1925,0.5775,0.0115,0.192,0.2035,0.059752140975,0.0115,0.192,0.2035,0.059752140975,0.0115,0.192,0.2035,0.059752140975,0.0115,0.192,0.2035,0.059752140975,0.0115,0.192,0.2035,0.059752140975,0.0115,0.192,0.2035,0.059752140975
35200000,90.7250301751,139.304620026,66.4352352496,0.698,0.155,0.5165,0.024,0.144,0.168,0.185714285714,0.024,0.144,0.168,0.185714285714,0.024,0.144,0.168,0.185714285714,0.024,0.144,0.168,0.185714285714,0.024,0.144,0.168,0.185714285714,0.024,0.144,0.168,0.185714285714
35200000,91.0898962512,139.226884335,67.0214022092,0.748,0.179,0.5645,0.008,0.163,0.171,0.0512275315264,0.008,0.163,0.171,0.0512275315264,0.008,0.163,0.171,0.0512275315264,0.008,0.163,0.171,0.0512275315264,0.008,0.163,0.171,0.0512275315264,0.008,0.163,0.171,0.0512275315264
35200000,91.7348676317,141.558921067,66.822840914,0.781,0.202,0.579,0.013,0.202,0.215,0.0646153846154,0.013,0.202,0.215,0.0646153846154,0.013,0.202,0.215,0.0646153846154,0.013,0.202,0.215,0.0646153846154,0.013,0.202,0.215,0.0646153846154,0.013,0.2005,0.2135,0.0649562937063
35200000,92.0023313279,141.93547556,67.035759212,0.782,0.203,0.5755,0.015,0.202,0.217,0.0758027389277,0.015,0.202,0.217,0.0758027389277,0.015,0.202,0.217,0.0758027389277,0.015,0.202,0.217,0.0758027389277,0.015,0.202,0.217,0.0758027389277,0.015,0.202,0.217,0.0758027389277
35200000,92.6254934824,143.582200299,67.1471400742,0.8015,0.203,0.603,0.013,0.1915,0.2045,0.0680372807018,0.013,0.1915,0.2045,0.0680372807018,0.013,0.1915,0.2045,0.0680372807018,0.013,0.1915,0.2045,0.0680372807018,0.013,0.1915,0.2045,0.0680372807018,0.013,0.1915,0.2045,0.0680372807018
35200000,92.7758018062,145.33596316,66.4957211296,0.811,0.192,0.6105,0.018,0.191,0.209,0.0951704545455,0.018,0.191,0.209,0.0951704545455,0.018,0.191,0.209,0.0951704545455,0.018,0.191,0.209,0.0951704545455,0.018,0.191,0.209,0.0951704545455,0.018,0.191,0.209,0.0951704545455
35200000,92.824636263,142.67586027,67.8990242595,0.761,0.2015,0.5605,0.011,0.1955,0.2065,0.055644459707,0.011,0.1955,0.2065,0.055644459707,0.011,0.1955,0.2065,0.055644459707,0.011,0.1955,0.2065,0.055644459707,0.011,0.1955,0.2065,0.055644459707,0.011,0.1955,0.2065,0.055644459707
35200000,93.0969017118,143.557527775,67.8665886804,0.762,0.2255,0.5695,0.019,0.2195,0.2385,0.0879076941482,0.019,0.2195,0.2385,0.0879076941482,0.019,0.2195,0.2385,0.0879076941482,0.019,0.2195,0.2385,0.0879076941482,0.019,0.2185,0.2375,0.0880891164994,0.019,0.2185,0.2375,0.0880891164994
35200000,93.5214522751,142.668705948,68.9478254385,0.772,0.1975,0.58,0.018,0.163,0.181,0.112708333333,0.018,0.163,0.181,0.112708333333,0.018,0.163,0.181,0.112708333333,0.018,0.163,0.181,0.112708333333,0.018,0.163,0.181,0.112708333333,0.018,0.163,0.181,0.112708333333
35200000,93.5266068985,144.130366719,68.2247269882,0.768,0.2,0.5665,0.012,0.186,0.198,0.0637580128205,0.012,0.186,0.198,0.0637580128205,0.012,0.186,0.198,0.0637580128205,0.012,0.186,0.198,0.0637580128205,0.012,0.186,0.198,0.0637580128205,0.012,0.186,0.198,0.0637580128205
35200000,93.6707341829,142.974814763,69.0186938929,0.727,0.1885,0.5365,0.02,0.1785,0.1985,0.113561909582,0.02,0.1785,0.1985,0.113561909582,0.02,0.1785,0.1985,0.113561909582,0.02,0.1785,0.1985,0.113561909582,0.02,0.1785,0.1985,0.113561909582,0.02,0.1785,0.1985,0.113561909582
35200000,94.0928471241,146.104313419,68.0871139768,0.785,0.1855,0.592,0.018,0.1385,0.1565,0.128589345437,0.018,0.1385,0.1565,0.128589345437,0.018,0.1385,0.1565,0.128589345437,0.018,0.1385,0.1565,0.128589345437,0.0155,0.1385,0.154,0.116570114668,0.0155,0.1385,0.154,0.116570114668
35200000,94.3709067801,144.716183738,69.1982683013,0.7545,0.1985,0.561,0.012,0.1975,0.2095,0.0604488921405,0.012,0.1975,0.2095,0.0604488921405,0.012,0.1975,0.2095,0.0604488921405,0.012,0.1975,0.2095,0.0604488921405,0.012,0.1975,0.2095,0.0604488921405,0.012,0.1975,0.2095,0.0604488921405
35200000,94.4019034347,145.476529055,68.8645906245,0.7635,0.1975,0.563,0.0235,0.1975,0.221,0.118662207358,0.0235,0.1975,0.221,0.118662207358,0.0235,0.1975,0.221,0.118662207358,0.0235,0.1975,0.221,0.118662207358,0.0235,0.1975,0.221,0.118662207358,0.0235,0.1975,0.221,0.118662207358
35200000,94.6025855918,143.869756361,69.9690002074,0.7585,0.1995,0.563,0.008,0.1895,0.1975,0.0426212374582,0.008,0.1895,0.1975,0.0426212374582,0.008,0.1895,0.1975,0.0426212374582,0.008,0.1895,0.1975,0.0426212374582,0.008,0.1895,0.1975,0.0426212374582,0.008,0.1895,0.1975,0.0426212374582
35200000,94.7255842994,144.179437573,69.9986576629,0.7545,0.1945,0.555,0.017,0.1915,0.2085,0.0890046296296,0.017,0.1915,0.2085,0.0890046296296,0.017,0.1915,0.2085,0.0890046296296,0.017,0.1915,0.2085,0.0890046296296,0.017,0.1915,0.2085,0.0890046296296,0.017,0.1915,0.2085,0.0890046296296
35200000,94.9302079093,145.346043615,69.7222900565,0.753,0.206,0.5505,0.0125,0.195,0.2075,0.065097512249,0.0125,0.195,0.2075,0.065097512249,0.0125,0.195,0.2075,0.065097512249,0.0125,0.195,0.2075,0.065097512249,0.0125,0.195,0.2075,0.065097512249,0.0125,0.195,0.2075,0.065097512249
35200000,95.4373085018,144.152068198,71.0799286535,0.7185,0.2065,0.518,0.016,0.2005,0.2165,0.0801045150502,0.016,0.2005,0.2165,0.0801045150502,0.016,0.2005,0.2165,0.0801045150502,0.016,0.2005,0.2165,0.0801045150502,0.016,0.2005,0.2165,0.0801045150502,0.016,0.2005,0.2165,0.0801045150502
35200000,95.5583762015,145.933336801,70.3708959017,0.748,0.1995,0.542,0.0095,0.1905,0.2,0.0501547315406,0.0095,0.1905,0.2,0.0501547315406,0.0095,0.1905,0.2,0.0501547315406,0.0095,0.1905,0.2,0.0501547315406,0.0095,0.1905,0.2,0.0501547315406,0.0095,0.1905,0.2,0.0501547315406
35200000,95.63022847,146.253631861,70.3185267743,0.75,0.199,0.5515,0.0145,0.1915,0.206,0.0752264492754,0.0145,0.1915,0.206,0.0752264492754,0.0145,0.1915,0.206,0.0752264492754,0.0145,0.1915,0.206,0.0752264492754,0.0145,0.1915,0.206,0.0752264492754,0.0125,0.1915,0.204,0.0652264492754
35200000,95.6330945146,147.328887985,69.7851977796,0.756,0.2305,0.52,0.0175,0.2175,0.235,0.0747542163719,0.0175,0.2175,0.235,0.0747542163719,0.0175,0.2175,0.235,0.0747542163719,0.0175,0.2175,0.235,0.0747542163719,0.0175,0.2175,0.235,0.0747542163719,0.0175,0.2175,0.235,0.0747542163719
35200000,95.9449745482,146.730269721,70.5523269618,0.7615,0.1915,0.5655,0.011,0.1895,0.2005,0.0585461956522,0.011,0.1895,0.2005,0.0585461956522,0.011,0.1895,0.2005,0.0585461956522,0.011,0.1895,0.2005,0.0585461956522,0.011,0.1895,0.2005,0.0585461956522,0.011,0.1895,0.2005,0.0585461956522
35200000,96.1833886309,148.025613399,70.2622762469,0.735,0.193,0.5435,0.0085,0.19,0.1985,0.0447237318841,0.0085,0.19,0.1985,0.0447237318841,0.0085,0.19,0.1985,0.0447237318841,0.0085,0.19,0.1985,0.0447237318841,0.0085,0.19,0.1985,0.0447237318841,0.0085,0.19,0.1985,0.0447237318841
35200000,96.5082216089,148.046825046,70.7389198904,0.74,0.2005,0.54,0.015,0.1945,0.2095,0.0808764378737,0.015,0.1945,0.2095,0.0808764378737,0.015,0.1945,0.2095,0.0808764378737,0.015,0.1945,0.2095,0.0808764378737,0.015,0.1945,0.2095,0.0808764378737,0.015,0.1945,0.2095,0.0808764378737
35200000,97.3150778849,149.609252784,71.1679904355,0.7385,0.197,0.544,0.0095,0.1885,0.198,0.0511941229061,0.0095,0.1885,0.198,0.0511941229061,0.0095,0.1885,0.198,0.0511941229061,0.0095,0.1885,0.198,0.0511941229061,0.0095,0.1885,0.198,0.0511941229061,0.0095,0.1845,0.194,0.0520274562394
35200000,97.5071639757,148.827265719,71.8471131038,0.749,0.198,0.553,0.012,0.177,0.189,0.0670703933747,0.012,0.177,0.189,0.0670703933747,0.012,0.177,0.189,0.0670703933747,0.012,0.177,0.189,0.0670703933747,0.012,0.177,0.189,0.0670703933747,0.012,0.177,0.189,0.0670703933747
35200000,97.7892330989,148.685599129,72.3410500838,0.74,0.202,0.535,0.0175,0.2005,0.218,0.0879588210702,0.0175,0.2005,0.218,0.0879588210702,0.0175,0.2005,0.218,0.0879588210702,0.0175,0.2005,0.218,0.0879588210702,0.0175,0.2005,0.218,0.0879588210702,0.0175,0.2005,0.218,0.0879588210702
35200000,98.6985328368,149.843431121,73.1260836948,0.7445,0.356,0.4795,0.0095,0.3515,0.361,0.0341933225648,0.0095,0.3515,0.361,0.0341933225648,0.0095,0.3515,0.361,0.0341933225648,0.0095,0.3515,0.361,0.0341933225648,0.0095,0.3515,0.361,0.0341933225648,0.0095,0.3515,0.361,0.0341933225648
35200000,98.9035142513,148.825392474,73.9425751402,0.729,0.2065,0.5305,0.0105,0.178,0.1885,0.0576362179487,0.0105,0.178,0.1885,0.0576362179487,0.0105,0.178,0.1885,0.0576362179487,0.0105,0.178,0.1885,0.0576362179487,0.0105,0.178,0.1885,0.0576362179487,0.0105,0.178,0.1885,0.0576362179487
35200000,99.1490294524,150.145848664,73.6506198464,0.72,0.1955,0.5265,0.0205,0.193,0.2135,0.105757575758,0.0205,0.193,0.2135,0.105757575758,0.0205,0.193,0.2135,0.105757575758,0.0205,0.193,0.2135,0.105757575758,0.0205,0.193,0.2135,0.105757575758,0.0205,0.193,0.2135,0.105757575758
35200000,99.2797113024,149.877550883,73.980791512,0.738,0.2005,0.537,0.016,0.1965,0.2125,0.081258361204,0.016,0.1965,0.2125,0.081258361204,0.016,0.1965,0.2125,0.081258361204,0.016,0.1965,0.2125,0.081258361204,0.016,0.1965,0.2125,0.081258361204,0.016,0.1965,0.2125,0.081258361204
