ID,mbp,sbp,dbp,cp,sut,dt,dt10,st10,st10_p_dt10,st10_d_dt10,dt25,st25,st25_p_dt25,st25_d_dt25,dt33,st33,st33_p_dt33,st33_d_dt33,dt50,st50,st50_p_dt50,st50_d_dt50,dt66,st66,st66_p_dt66,st66_d_dt66,dt75,st75,st75_p_dt75,st75_d_dt75
34040000,92.6644904807,123.928518848,77.0324762968,0.6585,0.246,0.448,0.024,0.238,0.262,0.116256011761,0.024,0.238,0.262,0.116256011761,0.024,0.238,0.262,0.116256011761,0.024,0.238,0.262,0.116256011761,0.024,0.238,0.262,0.116256011761,0.024,0.238,0.262,0.116256011761
34040000,93.0096610209,126.938184573,76.0453992451,0.736,0.352,0.544,0.008,0.296,0.304,0.027027027027,0.008,0.296,0.304,0.027027027027,0.008,0.296,0.304,0.027027027027,0.008,0.296,0.304,0.027027027027,0.008,0.296,0.304,0.027027027027,0.008,0.296,0.304,0.027027027027
34040000,94.7906404914,132.384785968,75.993567753,0.7565,0.2185,0.5485,0.01,0.209,0.219,0.0515521978022,0.01,0.209,0.219,0.0515521978022,0.01,0.209,0.219,0.0515521978022,0.01,0.209,0.219,0.0515521978022,0.01,0.2085,0.2185,0.051588492808,0.01,0.2085,0.2185,0.051588492808
34040000,95.8986879529,133.845609311,76.9252272741,0.75,0.2145,0.548,0.0125,0.2035,0.216,0.0626037549407,0.0125,0.2035,0.216,0.0626037549407,0.0125,0.2035,0.216,0.0626037549407,0.0125,0.2035,0.216,0.0626037549407,0.0125,0.2035,0.216,0.0626037549407,0.0125,0.2035,0.216,0.0626037549407
34040000,96.053854344,134.04690548,77.0573287759,0.7545,0.2345,0.525,0.025,0.2335,0.2585,0.101450858924,0.025,0.2335,0.2585,0.101450858924,0.025,0.2335,0.2585,0.101450858924,0.025,0.2335,0.2585,0.101450858924,0.025,0.2335,0.2585,0.101450858924,0.025,0.2335,0.2585,0.101450858924
34040000,96.1977503003,134.910708663,76.841271119,0.7565,0.2205,0.5465,0.025,0.2165,0.2415,0.121749194847,0.025,0.2165,0.2415,0.121749194847,0.025,0.2165,0.2415,0.121749194847,0.025,0.2165,0.2415,0.121749194847,0.025,0.2165,0.2415,0.121749194847,0.025,0.2165,0.2415,0.121749194847
34040000,96.2487239449,135.252881291,76.746645272,0.759,0.199,0.5495,0.0175,0.199,0.2165,0.0880952380952,0.0175,0.199,0.2165,0.0880952380952,0.0175,0.199,0.2165,0.0880952380952,0.0175,0.199,0.2165,0.0880952380952,0.0175,0.199,0.2165,0.0880952380952,0.0175,0.199,0.2165,0.0880952380952
34040000,97.1593572129,136.182536789,77.6477674249,0.755,0.1975,0.552,0.0085,0.193,0.2015,0.0439747073579,0.0085,0.193,0.2015,0.0439747073579,0.0085,0.193,0.2015,0.0439747073579,0.0085,0.193,0.2015,0.0439747073579,0.0085,0.193,0.2015,0.0439747073579,0.0085,0.193,0.2015,0.0439747073579
34040000,97.2797306452,136.60685114,77.6161703975,0.763,0.2,0.5,0.0175,0.192,0.2095,0.0928800828801,0.0175,0.192,0.2095,0.0928800828801,0.0175,0.191,0.2085,0.0937496480975,0.0175,0.191,0.2085,0.0937496480975,0.0175,0.191,0.2085,0.0937496480975,0.0175,0.191,0.2085,0.0937496480975
34040000,98.5439676266,138.1984558,78.7167235401,0.73,0.1935,0.5295,0.0145,0.189,0.2035,0.0761684149184,0.0145,0.189,0.2035,0.0761684149184,0.0145,0.189,0.2035,0.0761684149184,0.0145,0.189,0.2035,0.0761684149184,0.0145,0.189,0.2035,0.0761684149184,0.0145,0.189,0.2035,0.0761684149184
34040000,98.6268336561,138.564277093,78.6581119379,0.753,0.3135,0.5355,0.0085,0.3085,0.317,0.0327672955975,0.0085,0.3085,0.317,0.0327672955975,0.0085,0.3085,0.317,0.0327672955975,0.0085,0.3085,0.317,0.0327672955975,0.0085,0.308,0.3165,0.0329937448728,0.0085,0.308,0.3165,0.0329937448728
34040000,98.8026974155,138.705889503,78.8511013718,0.7485,0.2155,0.537,0.03,0.215,0.245,0.148201566952,0.03,0.215,0.245,0.148201566952,0.03,0.215,0.245,0.148201566952,0.03,0.215,0.245,0.148201566952,0.03,0.215,0.245,0.148201566952,0.03,0.215,0.245,0.148201566952
34040000,98.9886893628,137.381422363,79.7923228628,0.7485,0.315,0.4955,0.0165,0.3045,0.321,0.0633442883537,0.0165,0.3045,0.321,0.0633442883537,0.0165,0.3045,0.321,0.0633442883537,0.0085,0.3045,0.313,0.028861529733,0.0085,0.3045,0.313,0.028861529733,0.0085,0.3045,0.313,0.028861529733
34040000,99.3206003036,140.016978348,78.9724112812,0.752,0.2025,0.55,0.017,0.2015,0.2185,0.0847195512821,0.017,0.2015,0.2185,0.0847195512821,0.017,0.2015,0.2185,0.0847195512821,0.017,0.2015,0.2185,0.0847195512821,0.017,0.2015,0.2185,0.0847195512821,0.017,0.2015,0.2185,0.0847195512821
34040000,99.4555641119,140.436501689,78.9650953236,0.7435,0.202,0.4545,0.0175,0.199,0.2165,0.0867543914419,0.0175,0.199,0.2165,0.0867543914419,0.0175,0.199,0.2165,0.0867543914419,0.0175,0.198,0.2155,0.0871550324675,0.0175,0.198,0.2155,0.0871550324675,0.0175,0.198,0.2155,0.0871550324675
34040000,99.5081578478,139.46081995,79.5318267969,0.67,0.2795,0.462,0.008,0.2755,0.2835,0.0309548300537,0.008,0.2755,0.2835,0.0309548300537,0.008,0.2755,0.2835,0.0309548300537,0.008,0.2755,0.2835,0.0309548300537,0.008,0.2755,0.2835,0.0309548300537,0.008,0.2755,0.2835,0.0309548300537
34040000,99.5152156459,139.820885133,79.3623809025,0.769,0.2045,0.5665,0.01,0.199,0.209,0.0511371237458,0.01,0.199,0.209,0.0511371237458,0.01,0.199,0.209,0.0511371237458,0.01,0.199,0.209,0.0511371237458,0.01,0.199,0.209,0.0511371237458,0.01,0.199,0.209,0.0511371237458
34040000,99.7642815637,140.596367958,79.3482383666,0.803,0.211,0.5335,0.0225,0.195,0.2175,0.123246545122,0.0225,0.195,0.2175,0.123246545122,0.0225,0.195,0.2175,0.123246545122,0.0225,0.195,0.2175,0.123246545122,0.0225,0.195,0.2175,0.123246545122,0.0225,0.195,0.2175,0.123246545122
34040000,100.10622609,141.077357986,79.6206601423,0.7245,0.214,0.52,0.009,0.209,0.218,0.0434051724138,0.009,0.209,0.218,0.0434051724138,0.009,0.209,0.218,0.0434051724138,0.009,0.209,0.218,0.0434051724138,0.009,0.209,0.218,0.0434051724138,0.009,0.209,0.218,0.0434051724138
34040000,100.233332722,141.282410921,79.7087936227,0.7415,0.199,0.5385,0.0195,0.192,0.2115,0.1021215781,0.0195,0.192,0.2115,0.1021215781,0.0195,0.192,0.2115,0.1021215781,0.0195,0.192,0.2115,0.1021215781,0.0195,0.192,0.2115,0.1021215781,0.0195,0.192,0.2115,0.1021215781
34040000,100.798593354,141.718561914,80.3386090735,0.76,0.231,0.5305,0.012,0.228,0.24,0.0580447722567,0.012,0.228,0.24,0.0580447722567,0.012,0.228,0.24,0.0580447722567,0.012,0.228,0.24,0.0580447722567,0.012,0.228,0.24,0.0580447722567,0.012,0.228,0.24,0.0580447722567
34040000,102.3701114,144.995592558,81.0573708213,0.761,0.191,0.485,0.02,0.184,0.204,0.108031299841,0.02,0.184,0.204,0.108031299841,0.02,0.184,0.204,0.108031299841,0.02,0.184,0.204,0.108031299841,0.02,0.184,0.204,0.108031299841,0.02,0.184,0.204,0.108031299841
34080000,91.262235257,104.34298858,84.7218585957,0.92,0.344,0.696,0.008,0.336,0.344,0.0238095238095,0.008,0.336,0.344,0.0238095238095,0.008,0.336,0.344,0.0238095238095,0.008,0.336,0.344,0.0238095238095,0.008,0.336,0.344,0.0238095238095,0.008,0.336,0.344,0.0238095238095
34120000,97.4771514088,131.125004885,80.6532246704,0.7815,0.2045,0.5795,0.0235,0.1915,0.215,0.121398601399,0.0235,0.1915,0.215,0.121398601399,0.0235,0.1915,0.215,0.121398601399,0.0235,0.1915,0.215,0.121398601399,0.0235,0.1915,0.215,0.121398601399,0.0235,0.1915,0.215,0.121398601399
34120000,97.8414258901,133.014841317,80.2547181767,0.763,0.208,0.555,0.014,0.2055,0.2195,0.0677884615385,0.014,0.2055,0.2195,0.0677884615385,0.014,0.2055,0.2195,0.0677884615385,0.014,0.1895,0.2035,0.0747814685315,0.014,0.1895,0.2035,0.0747814685315,0.014,0.1895,0.2035,0.0747814685315
34120000,98.1526158573,138.328011178,78.0649181968,0.8,0.184,0.496,0.016,0.176,0.192,0.0909090909091,0.016,0.176,0.192,0.0909090909091,0.016,0.176,0.192,0.0909090909091,0.016,0.176,0.192,0.0909090909091,0.016,0.176,0.192,0.0909090909091,0.016,0.176,0.192,0.0909090909091
34120000,99.0588703353,139.240628472,78.9679912671,0.7615,0.216,0.567,0.019,0.203,0.222,0.0931809095452,0.019,0.203,0.222,0.0931809095452,0.019,0.203,0.222,0.0931809095452,0.019,0.203,0.222,0.0931809095452,0.019,0.203,0.222,0.0931809095452,0.019,0.203,0.222,0.0931809095452
34120000,100.070233965,134.343863822,82.9334190365,0.7635,0.206,0.5585,0.013,0.2035,0.2165,0.0634544159544,0.013,0.2035,0.2165,0.0634544159544,0.013,0.2035,0.2165,0.0634544159544,0.013,0.2035,0.2165,0.0634544159544,0.013,0.2035,0.2165,0.0634544159544,0.013,0.2035,0.2165,0.0634544159544
34120000,100.853768628,142.748728031,79.9062889261,0.7655,0.215,0.4875,0.013,0.2115,0.2245,0.066407290493,0.013,0.2115,0.2245,0.066407290493,0.013,0.2115,0.2245,0.066407290493,0.013,0.2115,0.2245,0.066407290493,0.013,0.2115,0.2245,0.066407290493,0.013,0.2115,0.2245,0.066407290493
34120000,101.120696305,143.635894323,79.8630972954,0.782,0.2425,0.5605,0.0105,0.235,0.2455,0.0503688683037,0.0105,0.235,0.2455,0.0503688683037,0.0105,0.235,0.2455,0.0503688683037,0.0105,0.235,0.2455,0.0503688683037,0.0105,0.235,0.2455,0.0503688683037,0.0105,0.235,0.2455,0.0503688683037
34120000,101.210788385,132.894205394,85.3690798805,0.746,0.202,0.546,0.0165,0.197,0.2135,0.0849278846154,0.0165,0.197,0.2135,0.0849278846154,0.0165,0.197,0.2135,0.0849278846154,0.0165,0.197,0.2135,0.0849278846154,0.0165,0.197,0.2135,0.0849278846154,0.0165,0.197,0.2135,0.0849278846154
34120000,101.612652245,142.737068639,81.0504440472,0.738,0.183,0.542,0.014,0.1665,0.1805,0.0864286333422,0.014,0.1665,0.1805,0.0864286333422,0.014,0.1665,0.1805,0.0864286333422,0.014,0.1665,0.1805,0.0864286333422,0.014,0.1665,0.1805,0.0864286333422,0.014,0.1665,0.1805,0.0864286333422
34120000,101.632637261,134.332808848,85.2825514675,0.7585,0.199,0.5595,0.014,0.197,0.211,0.070625,0.014,0.197,0.211,0.070625,0.014,0.197,0.211,0.070625,0.014,0.197,0.211,0.070625,0.014,0.197,0.211,0.070625,0.014,0.197,0.211,0.070625
34120000,101.734057859,136.601017775,84.3005779005,0.7645,0.2085,0.5565,0.012,0.2045,0.2165,0.0584649725275,0.012,0.2045,0.2165,0.0584649725275,0.012,0.2045,0.2165,0.0584649725275,0.012,0.2045,0.2165,0.0584649725275,0.012,0.2045,0.2165,0.0584649725275,0.012,0.2045,0.2165,0.0584649725275
34120000,101.827384041,137.762063121,83.8600445006,0.7765,0.203,0.575,0.0175,0.194,0.2115,0.0898244147157,0.0175,0.194,0.2115,0.0898244147157,0.0175,0.194,0.2115,0.0898244147157,0.0175,0.194,0.2115,0.0898244147157,0.0175,0.194,0.2115,0.0898244147157,0.0175,0.194,0.2115,0.0898244147157
34120000,102.27126207,145.45725605,80.6782650805,0.7415,0.23,0.528,0.009,0.213,0.222,0.0445548758176,0.009,0.213,0.222,0.0445548758176,0.009,0.213,0.222,0.0445548758176,0.009,0.213,0.222,0.0445548758176,0.009,0.213,0.222,0.0445548758176,0.009,0.213,0.222,0.0445548758176
34120000,102.449915939,137.877475228,84.7361362941,0.757,0.2,0.5515,0.023,0.199,0.222,0.115208333333,0.023,0.199,0.222,0.115208333333,0.023,0.199,0.222,0.115208333333,0.023,0.199,0.222,0.115208333333,0.023,0.199,0.222,0.115208333333,0.023,0.199,0.222,0.115208333333
34120000,102.475635203,145.185008448,81.1209485797,0.7855,0.2065,0.5135,0.008,0.2025,0.2105,0.0404028349001,0.008,0.2025,0.2105,0.0404028349001,0.008,0.2025,0.2105,0.0404028349001,0.008,0.2025,0.2105,0.0404028349001,0.008,0.2025,0.2105,0.0404028349001,0.008,0.2025,0.2105,0.0404028349001
34120000,102.520963458,146.173495657,80.6946973587,0.7845,0.1835,0.5995,0.013,0.1785,0.1915,0.0720579239601,0.013,0.1785,0.1915,0.0720579239601,0.013,0.1785,0.1915,0.0720579239601,0.013,0.1785,0.1915,0.0720579239601,0.013,0.1785,0.1915,0.0720579239601,0.013,0.1785,0.1915,0.0720579239601
34120000,102.930323824,145.6657498,81.5626108359,0.745,0.1815,0.482,0.0175,0.177,0.1945,0.0913517710257,0.0175,0.177,0.1945,0.0913517710257,0.0175,0.177,0.1945,0.0913517710257,0.0175,0.177,0.1945,0.0913517710257,0.0175,0.177,0.1945,0.0913517710257,0.0175,0.177,0.1945,0.0913517710257
34120000,103.288336362,145.30822438,82.2783923528,0.768,0.254,0.551,0.015,0.25,0.265,0.0573531722717,0.015,0.25,0.265,0.0573531722717,0.015,0.25,0.265,0.0573531722717,0.015,0.25,0.265,0.0573531722717,0.015,0.25,0.265,0.0573531722717,0.015,0.25,0.265,0.0573531722717
34120000,103.620440568,145.842054343,82.5096336809,0.753,0.2035,0.565,0.016,0.1955,0.2115,0.0853748078612,0.016,0.1955,0.2115,0.0853748078612,0.016,0.1955,0.2115,0.0853748078612,0.016,0.1955,0.2115,0.0853748078612,0.016,0.1955,0.2115,0.0853748078612,0.016,0.1955,0.2115,0.0853748078612
34120000,104.698613054,139.658486729,87.2186762168,0.7715,0.202,0.5685,0.008,0.197,0.205,0.040625,0.008,0.197,0.205,0.040625,0.008,0.197,0.205,0.040625,0.008,0.197,0.205,0.040625,0.008,0.197,0.205,0.040625,0.008,0.197,0.205,0.040625
34120000,105.397003361,137.959203564,89.1159032593,0.722,0.1885,0.526,0.011,0.174,0.185,0.0640316205534,0.011,0.174,0.185,0.0640316205534,0.011,0.174,0.185,0.0640316205534,0.011,0.174,0.185,0.0640316205534,0.011,0.174,0.185,0.0640316205534,0.011,0.174,0.185,0.0640316205534
34120000,105.887107485,142.42183934,87.6197415569,0.763,0.207,0.5565,0.024,0.2,0.224,0.119060758082,0.024,0.2,0.224,0.119060758082,0.024,0.2,0.224,0.119060758082,0.024,0.2,0.224,0.119060758082,0.024,0.2,0.224,0.119060758082,0.024,0.2,0.224,0.119060758082
34120000,105.896056056,139.887717753,88.9002252082,0.765,0.202,0.564,0.011,0.194,0.205,0.056875,0.011,0.194,0.205,0.056875,0.011,0.194,0.205,0.056875,0.011,0.194,0.205,0.056875,0.011,0.194,0.205,0.056875,0.011,0.194,0.205,0.056875
34120000,106.198050153,138.252117182,90.1710166393,0.741,0.204,0.5385,0.018,0.2,0.218,0.0889604236343,0.018,0.2,0.218,0.0889604236343,0.018,0.2,0.218,0.0889604236343,0.018,0.2,0.218,0.0889604236343,0.018,0.2,0.218,0.0889604236343,0.018,0.2,0.218,0.0889604236343
34120000,107.232588754,140.870689944,90.4135381583,0.745,0.2045,0.5465,0.0125,0.1935,0.206,0.063832001332,0.0125,0.1935,0.206,0.063832001332,0.0125,0.1935,0.206,0.063832001332,0.0125,0.1935,0.206,0.063832001332,0.0125,0.1935,0.206,0.063832001332,0.0125,0.1935,0.206,0.063832001332
34120000,107.573517328,142.393999509,90.1632762371,0.748,0.196,0.546,0.017,0.182,0.199,0.0936972990777,0.017,0.182,0.199,0.0936972990777,0.017,0.182,0.199,0.0936972990777,0.017,0.182,0.199,0.0936972990777,0.017,0.182,0.199,0.0936972990777,0.017,0.182,0.199,0.0936972990777
34120000,109.829472756,145.296597177,92.0959105453,0.733,0.1995,0.5335,0.014,0.18,0.194,0.0786533816425,0.014,0.18,0.194,0.0786533816425,0.014,0.18,0.194,0.0786533816425,0.014,0.18,0.194,0.0786533816425,0.014,0.18,0.194,0.0786533816425,0.014,0.18,0.194,0.0786533816425
34160000,91.6703835942,134.955433215,70.0278587839,0.784,0.229,0.565,0.022,0.219,0.241,0.107660834217,0.022,0.2185,0.2405,0.10770089832,0.022,0.2185,0.2405,0.10770089832,0.021,0.2185,0.2395,0.104652117832,0.021,0.2185,0.2395,0.104652117832,0.021,0.2185,0.2395,0.104652117832
34160000,93.2629331192,133.611061045,73.0888691562,0.755,0.202,0.553,0.0235,0.1945,0.218,0.120852272727,0.0235,0.1945,0.218,0.120852272727,0.0235,0.1945,0.218,0.120852272727,0.0235,0.1945,0.218,0.120852272727,0.0235,0.1945,0.218,0.120852272727,0.0235,0.1945,0.218,0.120852272727
34160000,93.5026609013,123.524948485,78.4915171094,0.7325,0.191,0.533,0.013,0.167,0.18,0.0810011441648,0.013,0.167,0.18,0.0810011441648,0.013,0.167,0.18,0.0810011441648,0.013,0.167,0.18,0.0810011441648,0.013,0.167,0.18,0.0810011441648,0.013,0.167,0.18,0.0810011441648
34160000,94.44744377,138.744443006,72.2989441517,0.7485,0.21,0.545,0.0145,0.208,0.2225,0.0689002403846,0.0145,0.208,0.2225,0.0689002403846,0.0145,0.208,0.2225,0.0689002403846,0.0145,0.208,0.2225,0.0689002403846,0.0145,0.208,0.2225,0.0689002403846,0.0145,0.208,0.2225,0.0689002403846
34160000,95.0694325683,124.496747894,80.3557749054,0.7315,0.199,0.533,0.028,0.19,0.218,0.146893939394,0.028,0.19,0.218,0.146893939394,0.028,0.19,0.218,0.146893939394,0.028,0.19,0.218,0.146893939394,0.028,0.19,0.218,0.146893939394,0.028,0.19,0.218,0.146893939394
34160000,95.3652913664,138.581016403,73.7574288482,0.7205,0.1965,0.532,0.0165,0.1955,0.212,0.0838433667781,0.0165,0.1955,0.212,0.0838433667781,0.0165,0.1955,0.212,0.0838433667781,0.0165,0.1955,0.212,0.0838433667781,0.0165,0.1955,0.212,0.0838433667781,0.0165,0.1955,0.212,0.0838433667781
34160000,98.0734335009,143.788551373,75.2158745648,0.724,0.198,0.5315,0.0185,0.1935,0.212,0.0973106060606,0.0185,0.1935,0.212,0.0973106060606,0.0185,0.1935,0.212,0.0973106060606,0.0185,0.1935,0.212,0.0973106060606,0.0185,0.1935,0.212,0.0973106060606,0.0185,0.1935,0.212,0.0973106060606
34160000,98.6101639936,143.366634,76.2319289903,0.6595,0.1985,0.454,0.0155,0.182,0.1975,0.0867106172813,0.0155,0.182,0.1975,0.0867106172813,0.0155,0.182,0.1975,0.0867106172813,0.0155,0.182,0.1975,0.0867106172813,0.0155,0.182,0.1975,0.0867106172813,0.0155,0.182,0.1975,0.0867106172813
34160000,99.7873288226,133.513787974,82.9240992467,0.5655,0.2725,0.341,0.024,0.2655,0.2895,0.0973425091857,0.024,0.2655,0.2895,0.0973425091857,0.024,0.2655,0.2895,0.0973425091857,0.024,0.2655,0.2895,0.0973425091857,0.024,0.2655,0.2895,0.0973425091857,0.024,0.2655,0.2895,0.0973425091857
34160000,99.9955715271,141.276517119,79.3550987311,0.7945,0.206,0.6015,0.019,0.2,0.219,0.0952548176461,0.019,0.2,0.219,0.0952548176461,0.019,0.2,0.219,0.0952548176461,0.019,0.2,0.219,0.0952548176461,0.019,0.2,0.219,0.0952548176461,0.019,0.2,0.219,0.0952548176461
34160000,104.908342741,150.015205639,82.3549112922,0.6855,0.204,0.492,0.0135,0.192,0.2055,0.069021545584,0.0135,0.192,0.2055,0.069021545584,0.0135,0.192,0.2055,0.069021545584,0.0135,0.192,0.2055,0.069021545584,0.0135,0.192,0.2055,0.069021545584,0.0135,0.192,0.2055,0.069021545584
34160000,105.11281738,150.710724325,82.3138639083,0.715,0.199,0.517,0.01,0.187,0.197,0.0530765319095,0.01,0.187,0.197,0.0530765319095,0.01,0.187,0.197,0.0530765319095,0.01,0.187,0.197,0.0530765319095,0.01,0.187,0.197,0.0530765319095,0.01,0.187,0.197,0.0530765319095
34160000,105.529805026,149.848409205,83.370502937,0.688,0.198,0.485,0.0135,0.185,0.1985,0.0728519668737,0.0135,0.185,0.1985,0.0728519668737,0.0135,0.185,0.1985,0.0728519668737,0.0135,0.185,0.1985,0.0728519668737,0.0135,0.185,0.1985,0.0728519668737,0.0135,0.185,0.1985,0.0728519668737
34160000,107.344814635,149.047118009,86.4936629478,0.7875,0.327,0.4725,0.0095,0.3195,0.329,0.0365347390603,0.0095,0.3195,0.329,0.0365347390603,0.0095,0.3195,0.329,0.0365347390603,0.0095,0.3195,0.329,0.0365347390603,0.0095,0.3195,0.329,0.0365347390603,0.0095,0.3195,0.329,0.0365347390603
34160000,108.250467232,149.839547384,87.4559271557,0.7045,0.2515,0.49,0.0155,0.247,0.2625,0.0728676617912,0.0155,0.247,0.2625,0.0728676617912,0.0155,0.247,0.2625,0.0728676617912,0.0155,0.247,0.2625,0.0728676617912,0.0155,0.247,0.2625,0.0728676617912,0.0155,0.247,0.2625,0.0728676617912
34200000,90.5016618587,129.500710601,71.0021374873,0.81,0.1865,0.615,0.009,0.179,0.188,0.0544553376906,0.009,0.179,0.188,0.0544553376906,0.009,0.179,0.188,0.0544553376906,0.009,0.179,0.188,0.0544553376906,0.009,0.179,0.188,0.0544553376906,0.009,0.179,0.188,0.0544553376906
34200000,91.4949898317,132.237484085,71.1237427052,0.777,0.245,0.566,0.0105,0.2285,0.239,0.0451516076516,0.0105,0.2285,0.239,0.0451516076516,0.0105,0.2285,0.239,0.0451516076516,0.0105,0.2285,0.239,0.0451516076516,0.0105,0.2285,0.239,0.0451516076516,0.0105,0.2285,0.239,0.0451516076516
34200000,91.6707490205,134.412484214,70.2998814239,0.734,0.215,0.524,0.026,0.2045,0.2305,0.130999855408,0.026,0.2045,0.2305,0.130999855408,0.026,0.2045,0.2305,0.130999855408,0.026,0.2035,0.2295,0.132461843712,0.026,0.2035,0.2295,0.132461843712,0.026,0.2035,0.2295,0.132461843712
34200000,93.640595443,136.860829193,72.0304785679,0.816,0.201,0.6045,0.054,0.1915,0.2455,0.31311291279,0.054,0.1915,0.2455,0.31311291279,0.054,0.1915,0.2455,0.31311291279,0.054,0.1915,0.2455,0.31311291279,0.054,0.1915,0.2455,0.31311291279,0.052,0.1915,0.2435,0.304492223134
34200000,94.9097170882,137.47123962,73.6289558222,0.769,0.201,0.453,0.0145,0.2,0.2145,0.0806750100586,0.0145,0.2,0.2145,0.0806750100586,0.0145,0.2,0.2145,0.0806750100586,0.0145,0.2,0.2145,0.0806750100586,0.0145,0.2,0.2145,0.0806750100586,0.0145,0.2,0.2145,0.0806750100586
34200000,94.9932346345,138.872807532,73.0534481857,0.8205,0.223,0.6,0.0095,0.212,0.2215,0.0449187051773,0.0095,0.212,0.2215,0.0449187051773,0.0095,0.212,0.2215,0.0449187051773,0.0095,0.212,0.2215,0.0449187051773,0.0095,0.212,0.2215,0.0449187051773,0.0095,0.212,0.2215,0.0449187051773
34200000,95.1458028732,139.163244945,73.1370818371,0.806,0.2195,0.5815,0.022,0.211,0.233,0.100483374384,0.022,0.211,0.233,0.100483374384,0.022,0.211,0.233,0.100483374384,0.022,0.211,0.233,0.100483374384,0.022,0.211,0.233,0.100483374384,0.022,0.211,0.233,0.100483374384
34200000,95.9677080821,142.151669034,72.875727606,0.84,0.218,0.6265,0.0125,0.209,0.2215,0.0599180911681,0.0125,0.209,0.2215,0.0599180911681,0.0125,0.209,0.2215,0.0599180911681,0.0125,0.209,0.2215,0.0599180911681,0.0125,0.209,0.2215,0.0599180911681,0.0125,0.209,0.2215,0.0599180911681
34200000,96.7436456762,140.680215348,74.7753608402,0.813,0.2115,0.6065,0.028,0.203,0.231,0.135151596089,0.028,0.203,0.231,0.135151596089,0.028,0.203,0.231,0.135151596089,0.0275,0.203,0.2305,0.132547429422,0.0275,0.203,0.2305,0.132547429422,0.0275,0.203,0.2305,0.132547429422
34200000,97.304855017,142.811833099,74.551365976,0.8005,0.2195,0.585,0.0195,0.2135,0.233,0.0924112230362,0.0195,0.2135,0.233,0.0924112230362,0.0195,0.2135,0.233,0.0924112230362,0.0195,0.2135,0.233,0.0924112230362,0.0195,0.2135,0.233,0.0924112230362,0.0195,0.2135,0.233,0.0924112230362
34200000,97.9816820579,144.799386458,74.5728298577,0.804,0.237,0.586,0.013,0.2245,0.2375,0.0565029761905,0.013,0.2245,0.2375,0.0565029761905,0.013,0.2245,0.2375,0.0565029761905,0.013,0.2245,0.2375,0.0565029761905,0.013,0.2245,0.2375,0.0565029761905,0.013,0.2245,0.2375,0.0565029761905
34200000,98.088735722,144.759080628,74.753563269,0.8215,0.2185,0.6085,0.0085,0.2135,0.222,0.0398288054538,0.0085,0.2135,0.222,0.0398288054538,0.0085,0.2135,0.222,0.0398288054538,0.0085,0.2135,0.222,0.0398288054538,0.0085,0.2135,0.222,0.0398288054538,0.0085,0.2135,0.222,0.0398288054538
34200000,98.1535954,145.704122132,74.3783320342,0.8255,0.2085,0.609,0.012,0.201,0.213,0.0600320512821,0.012,0.2,0.212,0.0604326923077,0.012,0.2,0.212,0.0604326923077,0.012,0.2,0.212,0.0604326923077,0.012,0.2,0.212,0.0604326923077,0.012,0.2,0.212,0.0604326923077
34200000,98.337356721,143.833437925,75.5893161188,0.776,0.2165,0.5605,0.016,0.214,0.23,0.0762778927996,0.016,0.214,0.23,0.0762778927996,0.016,0.214,0.23,0.0762778927996,0.016,0.214,0.23,0.0762778927996,0.016,0.214,0.23,0.0762778927996,0.016,0.214,0.23,0.0762778927996
34200000,98.3596653594,146.141027443,74.4689843176,0.8285,0.2125,0.6065,0.0085,0.1975,0.206,0.0434829059829,0.0085,0.1975,0.206,0.0434829059829,0.0085,0.1975,0.206,0.0434829059829,0.0085,0.197,0.2055,0.0436752136752,0.0085,0.197,0.2055,0.0436752136752,0.0085,0.197,0.2055,0.0436752136752
34200000,99.7520973452,147.066692303,76.0947998662,0.791,0.2215,0.5685,0.017,0.212,0.229,0.080148046398,0.017,0.212,0.229,0.080148046398,0.017,0.212,0.229,0.080148046398,0.017,0.212,0.229,0.080148046398,0.017,0.212,0.229,0.080148046398,0.017,0.212,0.229,0.080148046398
34200000,99.8706533145,147.178768428,76.2165957578,0.7925,0.212,0.579,0.021,0.208,0.229,0.101528286528,0.021,0.208,0.229,0.101528286528,0.021,0.208,0.229,0.101528286528,0.021,0.208,0.229,0.101528286528,0.021,0.208,0.229,0.101528286528,0.021,0.208,0.229,0.101528286528
34200000,100.020470691,145.905879742,77.0777661657,0.7645,0.223,0.553,0.017,0.2185,0.2355,0.0774010041682,0.017,0.2185,0.2355,0.0774010041682,0.017,0.2185,0.2355,0.0774010041682,0.017,0.2185,0.2355,0.0774010041682,0.017,0.2185,0.2355,0.0774010041682,0.017,0.2185,0.2355,0.0774010041682
34200000,100.329905318,146.837352293,77.0761818302,0.785,0.2135,0.5405,0.0155,0.213,0.2285,0.0748967236467,0.0155,0.213,0.2285,0.0748967236467,0.0155,0.213,0.2285,0.0748967236467,0.0155,0.213,0.2285,0.0748967236467,0.0155,0.213,0.2285,0.0748967236467,0.0155,0.213,0.2285,0.0748967236467
34200000,100.447191529,146.718483082,77.3115457529,0.808,0.218,0.596,0.013,0.2105,0.2235,0.0620675620676,0.013,0.2105,0.2235,0.0620675620676,0.013,0.2105,0.2235,0.0620675620676,0.013,0.2105,0.2235,0.0620675620676,0.013,0.2105,0.2235,0.0620675620676,0.013,0.2105,0.2235,0.0620675620676
34200000,100.476782466,145.164528201,78.1329095979,0.81,0.276,0.5615,0.0115,0.275,0.2865,0.045973064292,0.0115,0.275,0.2865,0.045973064292,0.0115,0.275,0.2865,0.045973064292,0.0115,0.275,0.2865,0.045973064292,0.0115,0.275,0.2865,0.045973064292,0.0115,0.275,0.2865,0.045973064292
34200000,100.5729598,148.14355354,76.7876629301,0.797,0.222,0.574,0.018,0.2155,0.2335,0.0818408141778,0.018,0.2155,0.2335,0.0818408141778,0.018,0.2155,0.2335,0.0818408141778,0.018,0.2155,0.2335,0.0818408141778,0.018,0.2155,0.2335,0.0818408141778,0.018,0.2155,0.2335,0.0818408141778
34200000,100.732192534,146.09954604,78.0485157814,0.7755,0.221,0.553,0.017,0.2195,0.2365,0.0765214490969,0.017,0.2195,0.2365,0.0765214490969,0.017,0.2195,0.2365,0.0765214490969,0.017,0.2195,0.2365,0.0765214490969,0.017,0.2195,0.2365,0.0765214490969,0.017,0.2195,0.2365,0.0765214490969
34200000,100.781634618,146.483288418,77.9308077173,0.7855,0.2145,0.5725,0.0165,0.1985,0.215,0.0830463316876,0.0165,0.1985,0.215,0.0830463316876,0.0165,0.1985,0.215,0.0830463316876,0.0165,0.1985,0.215,0.0830463316876,0.0165,0.1985,0.215,0.0830463316876,0.0165,0.1985,0.215,0.0830463316876
34200000,100.972473293,147.489804393,77.7138077427,0.808,0.2195,0.5845,0.01,0.2115,0.2215,0.046452991453,0.01,0.2115,0.2215,0.046452991453,0.01,0.2115,0.2215,0.046452991453,0.01,0.2115,0.2215,0.046452991453,0.01,0.2115,0.2215,0.046452991453,0.01,0.2115,0.2215,0.046452991453
34200000,101.129738985,148.22850533,77.5803558129,0.798,0.212,0.5825,0.023,0.203,0.226,0.115918803419,0.023,0.203,0.226,0.115918803419,0.023,0.2025,0.2255,0.116007834758,0.023,0.2025,0.2255,0.116007834758,0.023,0.2025,0.2255,0.116007834758,0.023,0.2025,0.2255,0.116007834758
34200000,101.175738922,148.19982941,77.6636936777,0.801,0.213,0.5805,0.0145,0.19,0.2045,0.078082010582,0.0145,0.19,0.2045,0.078082010582,0.0145,0.19,0.2045,0.078082010582,0.0145,0.19,0.2045,0.078082010582,0.0145,0.19,0.2045,0.078082010582,0.0145,0.19,0.2045,0.078082010582
34200000,101.197603818,141.65436128,80.9692250869,0.6875,0.1975,0.486,0.008,0.1885,0.1965,0.0426462542088,0.008,0.1885,0.1965,0.0426462542088,0.008,0.1885,0.1965,0.0426462542088,0.008,0.1885,0.1965,0.0426462542088,0.008,0.1885,0.1965,0.0426462542088,0.008,0.1885,0.1965,0.0426462542088
34200000,101.384188756,148.929229468,77.6116683991,0.797,0.209,0.583,0.028,0.2055,0.2335,0.137449534161,0.028,0.2055,0.2335,0.137449534161,0.028,0.2055,0.2335,0.137449534161,0.028,0.2055,0.2335,0.137449534161,0.028,0.2055,0.2335,0.137449534161,0.028,0.2055,0.2335,0.137449534161
34200000,101.740968832,148.830568033,78.1961692312,0.7825,0.218,0.5615,0.016,0.2065,0.2225,0.0772481684982,0.016,0.2065,0.2225,0.0772481684982,0.016,0.2065,0.2225,0.0772481684982,0.016,0.2065,0.2225,0.0772481684982,0.016,0.2065,0.2225,0.0772481684982,0.016,0.2065,0.2225,0.0772481684982
34200000,101.86912393,149.660999147,77.9731863214,0.7435,0.2005,0.535,0.017,0.186,0.203,0.0922344322344,0.017,0.186,0.203,0.0922344322344,0.017,0.186,0.203,0.0922344322344,0.017,0.186,0.203,0.0922344322344,0.017,0.186,0.203,0.0922344322344,0.017,0.186,0.203,0.0922344322344
34200000,102.030166669,149.225831654,78.432334176,0.759,0.25,0.526,0.008,0.242,0.25,0.0342457091238,0.008,0.242,0.25,0.0342457091238,0.008,0.242,0.25,0.0342457091238,0.008,0.242,0.25,0.0342457091238,0.008,0.242,0.25,0.0342457091238,0.008,0.242,0.25,0.0342457091238
34200000,102.086786478,145.849069697,80.2056448694,0.722,0.222,0.5195,0.021,0.217,0.238,0.0964872325742,0.021,0.217,0.238,0.0964872325742,0.021,0.217,0.238,0.0964872325742,0.021,0.217,0.238,0.0964872325742,0.021,0.217,0.238,0.0964872325742,0.021,0.217,0.238,0.0964872325742
34200000,102.415087386,148.526134422,79.3595638677,0.8075,0.2175,0.5965,0.0165,0.2075,0.224,0.0766424922459,0.0165,0.2075,0.224,0.0766424922459,0.0165,0.2075,0.224,0.0766424922459,0.0165,0.2075,0.224,0.0766424922459,0.0165,0.2075,0.224,0.0766424922459,0.0165,0.2075,0.224,0.0766424922459
34200000,102.63685489,149.345959611,79.2823025294,0.802,0.2145,0.592,0.0125,0.195,0.2075,0.0627968227425,0.0125,0.195,0.2075,0.0627968227425,0.0125,0.195,0.2075,0.0627968227425,0.0125,0.195,0.2075,0.0627968227425,0.0125,0.195,0.2075,0.0627968227425,0.0125,0.195,0.2075,0.0627968227425
34200000,102.707703053,148.02241611,80.0503465249,0.771,0.21,0.568,0.008,0.169,0.177,0.0492497276688,0.008,0.169,0.177,0.0492497276688,0.008,0.169,0.177,0.0492497276688,0.008,0.169,0.177,0.0492497276688,0.008,0.169,0.177,0.0492497276688,0.008,0.169,0.177,0.0492497276688
34200000,103.237401438,148.93466434,80.3887699869,0.771,0.212,0.561,0.0215,0.207,0.2285,0.103422364672,0.0215,0.207,0.2285,0.103422364672,0.0215,0.207,0.2285,0.103422364672,0.0215,0.207,0.2285,0.103422364672,0.0215,0.207,0.2285,0.103422364672,0.0215,0.207,0.2285,0.103422364672
34200000,103.635721327,147.521758958,81.6927025119,0.761,0.211,0.519,0.01,0.207,0.217,0.0479558404558,0.01,0.207,0.217,0.0479558404558,0.01,0.207,0.217,0.0479558404558,0.01,0.207,0.217,0.0479558404558,0.01,0.207,0.217,0.0479558404558,0.01,0.207,0.217,0.0479558404558
34200000,104.16078139,149.648245745,81.4170492128,0.765,0.2145,0.5505,0.0135,0.2075,0.221,0.0646850834351,0.0135,0.2075,0.221,0.0646850834351,0.0135,0.2075,0.221,0.0646850834351,0.0135,0.2075,0.221,0.0646850834351,0.0135,0.2075,0.221,0.0646850834351,0.0135,0.2075,0.221,0.0646850834351
34200000,104.358153744,149.292608965,81.8909261333,0.779,0.217,0.56,0.0355,0.21,0.2455,0.166574074074,0.0355,0.2095,0.245,0.166663105413,0.0355,0.2095,0.245,0.166663105413,0.0355,0.2095,0.245,0.166663105413,0.0355,0.2095,0.245,0.166663105413,0.0355,0.2095,0.245,0.166663105413
34200000,104.571948103,149.210703912,82.2525701984,0.766,0.233,0.5355,0.032,0.2185,0.2505,0.146561295458,0.032,0.2185,0.2505,0.146561295458,0.032,0.2185,0.2505,0.146561295458,0.032,0.2185,0.2505,0.146561295458,0.032,0.2185,0.2505,0.146561295458,0.032,0.2185,0.2505,0.146561295458
34200000,104.639772714,149.616604404,82.1513568696,0.7755,0.21,0.562,0.009,0.207,0.216,0.0434937445807,0.009,0.207,0.216,0.0434937445807,0.009,0.207,0.216,0.0434937445807,0.009,0.207,0.216,0.0434937445807,0.009,0.207,0.216,0.0434937445807,0.009,0.207,0.216,0.0434937445807
34200000,105.216071876,149.310684996,83.1687653161,0.771,0.213,0.5545,0.026,0.2,0.226,0.126489494302,0.026,0.2,0.226,0.126489494302,0.026,0.2,0.226,0.126489494302,0.026,0.2,0.226,0.126489494302,0.022,0.2,0.222,0.107970975783,0.022,0.2,0.222,0.107970975783
34200000,105.549308743,148.672110936,83.9879076462,0.7485,0.2105,0.521,0.017,0.189,0.206,0.0890360771475,0.017,0.189,0.206,0.0890360771475,0.017,0.189,0.206,0.0890360771475,0.017,0.189,0.206,0.0890360771475,0.017,0.188,0.205,0.0892831127206,0.017,0.188,0.205,0.0892831127206
34200000,106.126117828,148.181060281,85.0986466018,0.7515,0.209,0.54,0.015,0.207,0.222,0.0728594322344,0.015,0.207,0.222,0.0728594322344,0.015,0.207,0.222,0.0728594322344,0.015,0.207,0.222,0.0728594322344,0.015,0.207,0.222,0.0728594322344,0.015,0.207,0.222,0.0728594322344
34200000,107.026513022,149.951874412,85.5638323268,0.674,0.1925,0.478,0.0085,0.1865,0.195,0.0455486542443,0.0085,0.1865,0.195,0.0455486542443,0.0085,0.1865,0.195,0.0455486542443,0.0085,0.1865,0.195,0.0455486542443,0.0085,0.1865,0.195,0.0455486542443,0.0085,0.1865,0.195,0.0455486542443
34200000,107.220042109,143.768849421,88.9456384525,0.6465,0.2005,0.3985,0.013,0.1975,0.2105,0.0650006860886,0.013,0.1975,0.2105,0.0650006860886,0.013,0.1975,0.2105,0.0650006860886,0.013,0.1975,0.2105,0.0650006860886,0.011,0.1975,0.2085,0.0545840194219,0.011,0.1975,0.2085,0.0545840194219
34200000,108.154150711,149.65698617,87.4027329819,0.755,0.2085,0.543,0.0165,0.1965,0.213,0.0831641737892,0.0165,0.1965,0.213,0.0831641737892,0.0165,0.1965,0.213,0.0831641737892,0.0165,0.1965,0.213,0.0831641737892,0.0165,0.1965,0.213,0.0831641737892,0.0165,0.1965,0.213,0.0831641737892
34240000,99.2173981021,144.833024765,76.4095847705,0.72,0.1985,0.5195,0.016,0.192,0.208,0.0834539473684,0.016,0.192,0.208,0.0834539473684,0.016,0.192,0.208,0.0834539473684,0.016,0.192,0.208,0.0834539473684,0.016,0.192,0.208,0.0834539473684,0.016,0.192,0.208,0.0834539473684
34240000,100.029531138,147.529443904,76.2795747551,0.7315,0.202,0.5265,0.043,0.1905,0.2335,0.231333992095,0.043,0.1905,0.2335,0.231333992095,0.043,0.1905,0.2335,0.231333992095,0.043,0.1905,0.2335,0.231333992095,0.043,0.1905,0.2335,0.231333992095,0.043,0.1905,0.2335,0.231333992095
34240000,100.36794232,146.246492096,77.4286674326,0.718,0.2015,0.513,0.0135,0.1855,0.199,0.0724540767204,0.0135,0.1855,0.199,0.0724540767204,0.0135,0.1855,0.199,0.0724540767204,0.0135,0.1855,0.199,0.0724540767204,0.0135,0.1855,0.199,0.0724540767204,0.0135,0.1855,0.199,0.0724540767204
34240000,101.694957389,148.51817731,78.2833474281,0.732,0.201,0.525,0.009,0.199,0.208,0.0452564102564,0.009,0.199,0.208,0.0452564102564,0.009,0.199,0.208,0.0452564102564,0.009,0.199,0.208,0.0452564102564,0.009,0.199,0.208,0.0452564102564,0.009,0.199,0.208,0.0452564102564
34240000,103.678506898,149.375450409,80.830035143,0.6825,0.187,0.4755,0.0195,0.1855,0.205,0.104495614035,0.0195,0.1855,0.205,0.104495614035,0.0195,0.1855,0.205,0.104495614035,0.0195,0.1855,0.205,0.104495614035,0.0195,0.1855,0.205,0.104495614035,0.0195,0.1855,0.205,0.104495614035
34240000,103.693392042,150.697183855,80.1914961362,0.746,0.1965,0.4875,0.008,0.1875,0.1955,0.0427268610013,0.008,0.1875,0.1955,0.0427268610013,0.008,0.1875,0.1955,0.0427268610013,0.008,0.1875,0.1955,0.0427268610013,0.008,0.1875,0.1955,0.0427268610013,0.008,0.1875,0.1955,0.0427268610013
34240000,103.708960214,149.408558544,80.8591610485,0.669,0.223,0.4615,0.008,0.2195,0.2275,0.0370394736842,0.008,0.2195,0.2275,0.0370394736842,0.008,0.2195,0.2275,0.0370394736842,0.008,0.2195,0.2275,0.0370394736842,0.008,0.2195,0.2275,0.0370394736842,0.008,0.2195,0.2275,0.0370394736842
34240000,103.897076828,150.62710393,80.5320632764,0.667,0.1945,0.4695,0.0155,0.158,0.1735,0.105397727273,0.0155,0.158,0.1735,0.105397727273,0.0155,0.158,0.1735,0.105397727273,0.0155,0.158,0.1735,0.105397727273,0.0155,0.158,0.1735,0.105397727273,0.0155,0.158,0.1735,0.105397727273
34240000,104.068814457,148.052610769,82.0769163013,0.6475,0.228,0.4345,0.016,0.2185,0.2345,0.0845170633107,0.016,0.2185,0.2345,0.0845170633107,0.016,0.2185,0.2345,0.0845170633107,0.016,0.2185,0.2345,0.0845170633107,0.016,0.2185,0.2345,0.0845170633107,0.016,0.2185,0.2345,0.0845170633107
34240000,104.315237184,149.043034881,81.9513383358,0.72,0.3325,0.467,0.0085,0.329,0.3375,0.0290364992151,0.0085,0.329,0.3375,0.0290364992151,0.0085,0.329,0.3375,0.0290364992151,0.0085,0.329,0.3375,0.0290364992151,0.0085,0.329,0.3375,0.0290364992151,0.0085,0.329,0.3375,0.0290364992151
34240000,105.597625047,149.342756961,83.7250590894,0.6845,0.1925,0.486,0.017,0.191,0.208,0.0884197324415,0.017,0.191,0.208,0.0884197324415,0.017,0.191,0.208,0.0884197324415,0.017,0.191,0.208,0.0884197324415,0.017,0.191,0.208,0.0884197324415,0.017,0.191,0.208,0.0884197324415
34240000,106.226110152,149.088113205,84.7951086259,0.704,0.2025,0.498,0.0165,0.19,0.2065,0.0831464730921,0.0165,0.19,0.2065,0.0831464730921,0.0165,0.19,0.2065,0.0831464730921,0.0165,0.19,0.2065,0.0831464730921,0.0165,0.19,0.2065,0.0831464730921,0.0165,0.19,0.2065,0.0831464730921
34240000,106.389368676,150.331428196,84.4183389165,0.673,0.2335,0.484,0.021,0.2235,0.2445,0.108030548483,0.021,0.2235,0.2445,0.108030548483,0.021,0.2235,0.2445,0.108030548483,0.021,0.2235,0.2445,0.108030548483,0.021,0.2235,0.2445,0.108030548483,0.021,0.2235,0.2445,0.108030548483
34480000,97.5134960832,134.333927771,79.1032802393,0.6395,0.204,0.478,0.017,0.199,0.216,0.0854090022297,0.017,0.199,0.216,0.0854090022297,0.017,0.199,0.216,0.0854090022297,0.017,0.199,0.216,0.0854090022297,0.017,0.199,0.216,0.0854090022297,0.017,0.199,0.216,0.0854090022297
34480000,98.7572482115,148.959826807,73.6559589138,0.816,0.202,0.615,0.0115,0.196,0.2075,0.0598913043478,0.0115,0.184,0.1955,0.0626185770751,0.0115,0.184,0.1955,0.0626185770751,0.0115,0.184,0.1955,0.0626185770751,0.0115,0.184,0.1955,0.0626185770751,0.0115,0.184,0.1955,0.0626185770751
34480000,99.0919904972,147.986094837,74.6449383273,0.7845,0.206,0.5875,0.013,0.2035,0.2165,0.0637415824916,0.013,0.2035,0.2165,0.0637415824916,0.013,0.2035,0.2165,0.0637415824916,0.013,0.2035,0.2165,0.0637415824916,0.013,0.2035,0.2165,0.0637415824916,0.013,0.2035,0.2165,0.0637415824916
34480000,99.6059828663,149.02950407,74.8942222645,0.811,0.2005,0.603,0.012,0.1935,0.2055,0.0624465811966,0.012,0.1935,0.2055,0.0624465811966,0.012,0.1935,0.2055,0.0624465811966,0.012,0.1935,0.2055,0.0624465811966,0.012,0.1935,0.2055,0.0624465811966,0.012,0.1935,0.2055,0.0624465811966
34480000,99.7208337126,148.907955491,75.1272728232,0.792,0.1955,0.5955,0.0215,0.186,0.2075,0.119640151515,0.0215,0.186,0.2075,0.119640151515,0.0215,0.186,0.2075,0.119640151515,0.0215,0.186,0.2075,0.119640151515,0.0215,0.186,0.2075,0.119640151515,0.0215,0.186,0.2075,0.119640151515
34480000,99.8653454653,149.826690262,74.8846730669,0.795,0.1955,0.598,0.027,0.1945,0.2215,0.138020833333,0.027,0.1945,0.2215,0.138020833333,0.027,0.1945,0.2215,0.138020833333,0.027,0.1945,0.2215,0.138020833333,0.027,0.1945,0.2215,0.138020833333,0.027,0.1945,0.2215,0.138020833333
34480000,99.9259239596,146.838570493,76.469600693,0.8905,0.2175,0.647,0.009,0.2125,0.2215,0.0421309015059,0.009,0.2125,0.2215,0.0421309015059,0.009,0.2125,0.2215,0.0421309015059,0.009,0.2125,0.2215,0.0421309015059,0.009,0.2125,0.2215,0.0421309015059,0.009,0.2125,0.2215,0.0421309015059
34480000,100.020577053,142.584658366,78.7385363963,0.7325,0.194,0.5515,0.028,0.186,0.214,0.151742424242,0.028,0.186,0.214,0.151742424242,0.028,0.186,0.214,0.151742424242,0.028,0.186,0.214,0.151742424242,0.028,0.186,0.214,0.151742424242,0.028,0.186,0.214,0.151742424242
34480000,100.030857125,149.172788773,75.4598913012,0.794,0.1965,0.596,0.012,0.1915,0.2035,0.0623772423229,0.012,0.1915,0.2035,0.0623772423229,0.012,0.1915,0.2035,0.0623772423229,0.012,0.1915,0.2035,0.0623772423229,0.012,0.1915,0.2035,0.0623772423229,0.012,0.1915,0.2035,0.0623772423229
34480000,100.180145446,149.404839568,75.5677983849,0.757,0.191,0.5675,0.0185,0.173,0.1915,0.106630434783,0.0165,0.173,0.1895,0.0957608695652,0.0165,0.173,0.1895,0.0957608695652,0.0165,0.173,0.1895,0.0957608695652,0.0125,0.173,0.1855,0.0707608695652,0.0125,0.173,0.1855,0.0707608695652
34480000,100.534077276,149.585223479,76.0085041752,0.756,0.196,0.564,0.016,0.184,0.2,0.0871212121212,0.016,0.184,0.2,0.0871212121212,0.016,0.184,0.2,0.0871212121212,0.016,0.184,0.2,0.0871212121212,0.016,0.184,0.2,0.0871212121212,0.016,0.184,0.2,0.0871212121212
34480000,100.670868903,149.912228245,76.0501892316,0.787,0.1985,0.588,0.016,0.1975,0.2135,0.0812862318841,0.0155,0.1975,0.213,0.0785688405797,0.0155,0.1975,0.213,0.0785688405797,0.0155,0.1975,0.213,0.0785688405797,0.0155,0.1975,0.213,0.0785688405797,0.0155,0.1975,0.213,0.0785688405797
34480000,100.90013869,149.469335958,76.615540056,0.88,0.228,0.6665,0.014,0.225,0.239,0.0623993463433,0.014,0.225,0.239,0.0623993463433,0.014,0.225,0.239,0.0623993463433,0.014,0.225,0.239,0.0623993463433,0.014,0.225,0.239,0.0623993463433,0.014,0.225,0.239,0.0623993463433
34480000,100.939557995,150.1054795,76.356597242,0.794,0.195,0.596,0.01,0.188,0.198,0.0545962732919,0.01,0.188,0.198,0.0545962732919,0.01,0.188,0.198,0.0545962732919,0.01,0.188,0.198,0.0545962732919,0.01,0.188,0.198,0.0545962732919,0.01,0.188,0.198,0.0545962732919
34480000,101.071986899,150.004860975,76.6055498605,0.8,0.2005,0.6025,0.012,0.1955,0.2075,0.0612152777778,0.012,0.1955,0.2075,0.0612152777778,0.012,0.1955,0.2075,0.0612152777778,0.012,0.1955,0.2075,0.0612152777778,0.012,0.1955,0.2075,0.0612152777778,0.012,0.1955,0.2075,0.0612152777778
34480000,101.094608687,149.822333349,76.7307463554,0.8715,0.2175,0.6435,0.012,0.2135,0.2255,0.055799071618,0.012,0.2135,0.2255,0.055799071618,0.012,0.2135,0.2255,0.055799071618,0.012,0.2135,0.2255,0.055799071618,0.012,0.2135,0.2255,0.055799071618,0.012,0.2135,0.2255,0.055799071618
34480000,101.402113568,150.112070392,77.0471351568,0.8115,0.2,0.6115,0.0175,0.1955,0.213,0.0896014492754,0.0175,0.1955,0.213,0.0896014492754,0.0175,0.1955,0.213,0.0896014492754,0.0175,0.1955,0.213,0.0896014492754,0.0175,0.1955,0.213,0.0896014492754,0.0175,0.1955,0.213,0.0896014492754
34480000,101.773960474,150.151447413,77.5852170046,0.807,0.2075,0.6095,0.0205,0.2025,0.223,0.103709935897,0.0205,0.2025,0.223,0.103709935897,0.0205,0.2025,0.223,0.103709935897,0.0205,0.2025,0.223,0.103709935897,0.0205,0.2025,0.223,0.103709935897,0.0205,0.2025,0.223,0.103709935897
34480000,101.837893472,149.976441174,77.768619621,0.8255,0.1925,0.6135,0.031,0.1755,0.2065,0.183361010467,0.031,0.1755,0.2065,0.183361010467,0.031,0.1755,0.2065,0.183361010467,0.031,0.1755,0.2065,0.183361010467,0.031,0.1755,0.2065,0.183361010467,0.031,0.1755,0.2065,0.183361010467
34480000,102.456032849,150.034339312,78.6668796174,0.8255,0.2025,0.624,0.012,0.202,0.214,0.0592387820513,0.012,0.202,0.214,0.0592387820513,0.012,0.202,0.214,0.0592387820513,0.012,0.202,0.214,0.0592387820513,0.012,0.202,0.214,0.0592387820513,0.012,0.202,0.214,0.0592387820513
34480000,102.747806245,150.170915527,79.0362516044,0.8065,0.203,0.6065,0.0145,0.1885,0.203,0.0781867588933,0.0145,0.1885,0.203,0.0781867588933,0.0145,0.1885,0.203,0.0781867588933,0.0145,0.1885,0.203,0.0781867588933,0.0145,0.1885,0.203,0.0781867588933,0.0145,0.1885,0.203,0.0781867588933
34480000,102.781482874,150.144669542,79.0998895403,0.762,0.2005,0.5635,0.0185,0.186,0.2045,0.0999773550725,0.0185,0.186,0.2045,0.0999773550725,0.0185,0.186,0.2045,0.0999773550725,0.0185,0.186,0.2045,0.0999773550725,0.0185,0.186,0.2045,0.0999773550725,0.0185,0.186,0.2045,0.0999773550725
34480000,102.830530641,150.365382611,79.0631046557,0.7995,0.199,0.598,0.0125,0.193,0.2055,0.0638585050007,0.0125,0.193,0.2055,0.0638585050007,0.0125,0.193,0.2055,0.0638585050007,0.0125,0.193,0.2055,0.0638585050007,0.0125,0.193,0.2055,0.0638585050007,0.0125,0.193,0.2055,0.0638585050007
34480000,102.916270072,150.119622555,79.3145938305,0.7845,0.203,0.5875,0.009,0.187,0.196,0.0477461080586,0.009,0.187,0.196,0.0477461080586,0.009,0.187,0.196,0.0477461080586,0.009,0.187,0.196,0.0477461080586,0.009,0.187,0.196,0.0477461080586,0.009,0.187,0.196,0.0477461080586
34480000,102.92034528,147.802730252,80.4791527933,0.7705,0.193,0.581,0.025,0.174,0.199,0.14805696306,0.009,0.174,0.183,0.0528188678217,0.009,0.174,0.183,0.0528188678217,0.009,0.174,0.183,0.0528188678217,0.009,0.174,0.183,0.0528188678217,0.009,0.174,0.183,0.0528188678217
34480000,103.075735545,150.200074516,79.5135660594,0.7745,0.2,0.5765,0.0115,0.198,0.2095,0.058777173913,0.0115,0.198,0.2095,0.058777173913,0.0115,0.198,0.2095,0.058777173913,0.0115,0.198,0.2095,0.058777173913,0.0115,0.198,0.2095,0.058777173913,0.0105,0.196,0.2065,0.0545158102767
34480000,103.159889158,150.135175251,79.6722461109,0.789,0.2055,0.589,0.0115,0.194,0.2055,0.0589285714286,0.0115,0.194,0.2055,0.0589285714286,0.0115,0.194,0.2055,0.0589285714286,0.0115,0.194,0.2055,0.0589285714286,0.0115,0.194,0.2055,0.0589285714286,0.0115,0.194,0.2055,0.0589285714286
34480000,103.178023639,150.158747223,79.6876618461,0.801,0.194,0.5965,0.031,0.176,0.207,0.178830227743,0.031,0.176,0.207,0.178830227743,0.031,0.176,0.207,0.178830227743,0.031,0.176,0.207,0.178830227743,0.031,0.176,0.207,0.178830227743,0.031,0.176,0.207,0.178830227743
34480000,103.871755659,150.245291292,80.6849878418,0.8015,0.2015,0.5955,0.022,0.1935,0.2155,0.112291666667,0.022,0.1935,0.2155,0.112291666667,0.022,0.1935,0.2155,0.112291666667,0.022,0.1935,0.2155,0.112291666667,0.022,0.1935,0.2155,0.112291666667,0.022,0.1935,0.2155,0.112291666667
34480000,104.352889646,150.325259386,81.3667047757,0.7785,0.2105,0.5775,0.0195,0.1965,0.216,0.105450892391,0.0195,0.1965,0.216,0.105450892391,0.0195,0.1965,0.216,0.105450892391,0.0195,0.1965,0.216,0.105450892391,0.0195,0.194,0.2135,0.105827035867,0.0195,0.194,0.2135,0.105827035867
34480000,104.999181573,148.541522058,83.2280113302,0.7625,0.2065,0.558,0.021,0.2025,0.2235,0.104423076923,0.021,0.2025,0.2235,0.104423076923,0.021,0.2025,0.2235,0.104423076923,0.021,0.2025,0.2235,0.104423076923,0.021,0.2025,0.2235,0.104423076923,0.021,0.2025,0.2235,0.104423076923
34600000,94.4889398508,136.966711981,73.2500537858,0.793,0.252,0.6035,0.009,0.2425,0.2515,0.0428548644338,0.009,0.2425,0.2515,0.0428548644338,0.009,0.2425,0.2515,0.0428548644338,0.009,0.2425,0.2515,0.0428548644338,0.009,0.2425,0.2515,0.0428548644338,0.009,0.2425,0.2515,0.0428548644338
34600000,95.3159307571,138.328758273,73.8095169993,0.782,0.181,0.5965,0.0195,0.181,0.2005,0.107933959157,0.0195,0.181,0.2005,0.107933959157,0.0195,0.181,0.2005,0.107933959157,0.0195,0.181,0.2005,0.107933959157,0.0195,0.181,0.2005,0.107933959157,0.0195,0.181,0.2005,0.107933959157
34600000,96.8486328841,140.652105214,74.9468967189,0.753,0.198,0.5675,0.016,0.1925,0.2085,0.0833973861284,0.016,0.1925,0.2085,0.0833973861284,0.016,0.1925,0.2085,0.0833973861284,0.016,0.1925,0.2085,0.0833973861284,0.016,0.1925,0.2085,0.0833973861284,0.016,0.1925,0.2085,0.0833973861284
34600000,97.3541219819,141.402422782,75.3299715818,0.772,0.184,0.5925,0.0115,0.1815,0.193,0.0637351778656,0.0115,0.1815,0.193,0.0637351778656,0.0115,0.1815,0.193,0.0637351778656,0.0115,0.1815,0.193,0.0637351778656,0.0115,0.1815,0.193,0.0637351778656,0.0115,0.1815,0.193,0.0637351778656
34600000,97.4494525828,141.615373188,75.3664922802,0.7915,0.1875,0.604,0.0175,0.179,0.1965,0.09770256917,0.0175,0.179,0.1965,0.09770256917,0.0175,0.179,0.1965,0.09770256917,0.0175,0.179,0.1965,0.09770256917,0.0175,0.179,0.1965,0.09770256917,0.0175,0.179,0.1965,0.09770256917
34600000,97.6232066625,141.730180408,75.5697197899,0.77,0.18,0.585,0.0135,0.178,0.1915,0.0772044984002,0.0135,0.178,0.1915,0.0772044984002,0.0135,0.178,0.1915,0.0772044984002,0.0135,0.178,0.1915,0.0772044984002,0.0135,0.178,0.1915,0.0772044984002,0.0135,0.178,0.1915,0.0772044984002
34600000,97.7856724385,143.741252384,74.807882466,0.777,0.173,0.5975,0.015,0.166,0.181,0.0895467836257,0.015,0.166,0.181,0.0895467836257,0.015,0.166,0.181,0.0895467836257,0.015,0.166,0.181,0.0895467836257,0.015,0.166,0.181,0.0895467836257,0.015,0.158,0.173,0.0940922381712
34600000,97.8581479725,142.463211387,75.5556162652,0.75,0.1865,0.5615,0.0115,0.178,0.1895,0.0650156455863,0.0115,0.178,0.1895,0.0650156455863,0.0115,0.178,0.1895,0.0650156455863,0.0115,0.178,0.1895,0.0650156455863,0.0115,0.178,0.1895,0.0650156455863,0.0115,0.178,0.1895,0.0650156455863
34600000,98.0064898461,142.09168345,75.9638930439,0.736,0.1815,0.4895,0.013,0.174,0.187,0.0747459062676,0.013,0.174,0.187,0.0747459062676,0.013,0.174,0.187,0.0747459062676,0.013,0.174,0.187,0.0747459062676,0.013,0.174,0.187,0.0747459062676,0.013,0.174,0.187,0.0747459062676
34600000,98.2389623341,142.938286854,75.889300074,0.7665,0.1875,0.581,0.0195,0.1825,0.202,0.107304606625,0.0195,0.1825,0.202,0.107304606625,0.0195,0.1825,0.202,0.107304606625,0.0195,0.1825,0.202,0.107304606625,0.0195,0.1825,0.202,0.107304606625,0.0195,0.1825,0.202,0.107304606625
34600000,98.4546012975,143.366804524,75.998499684,0.7695,0.1905,0.585,0.033,0.1865,0.2195,0.173389563335,0.033,0.1865,0.2195,0.173389563335,0.033,0.1865,0.2195,0.173389563335,0.033,0.1865,0.2195,0.173389563335,0.033,0.1865,0.2195,0.173389563335,0.033,0.1865,0.2195,0.173389563335
34600000,98.8929421763,142.962270141,76.8582781939,0.7725,0.187,0.5835,0.0175,0.184,0.2015,0.0940402667984,0.0175,0.184,0.2015,0.0940402667984,0.0175,0.184,0.2015,0.0940402667984,0.0175,0.184,0.2015,0.0940402667984,0.0115,0.184,0.1955,0.0627902667984,0.0115,0.184,0.1955,0.0627902667984
34600000,99.1147912625,143.082432643,77.1309705723,0.7715,0.189,0.581,0.0085,0.187,0.1955,0.0454442523057,0.0085,0.187,0.1955,0.0454442523057,0.0085,0.187,0.1955,0.0454442523057,0.0085,0.187,0.1955,0.0454442523057,0.0085,0.187,0.1955,0.0454442523057,0.0085,0.187,0.1955,0.0454442523057
34600000,99.2225314256,144.935686922,76.3659536776,0.732,0.1815,0.549,0.034,0.1655,0.1995,0.195991357676,0.034,0.1655,0.1995,0.195991357676,0.034,0.1655,0.1995,0.195991357676,0.034,0.1655,0.1995,0.195991357676,0.034,0.1655,0.1995,0.195991357676,0.034,0.1655,0.1995,0.195991357676
34600000,99.3935972537,144.107757554,77.0365171033,0.7515,0.1835,0.569,0.0205,0.178,0.1985,0.114568628835,0.0205,0.178,0.1985,0.114568628835,0.0205,0.178,0.1985,0.114568628835,0.0205,0.178,0.1985,0.114568628835,0.0205,0.178,0.1985,0.114568628835,0.0205,0.178,0.1985,0.114568628835
34600000,99.5962106909,144.666900375,77.0608658488,0.7895,0.1865,0.529,0.018,0.179,0.197,0.102137445887,0.018,0.179,0.197,0.102137445887,0.018,0.179,0.197,0.102137445887,0.018,0.179,0.197,0.102137445887,0.018,0.179,0.197,0.102137445887,0.018,0.179,0.197,0.102137445887
34600000,99.597116974,143.93572085,77.4278150359,0.718,0.18,0.545,0.014,0.1725,0.1865,0.0823175465839,0.014,0.1685,0.1825,0.0835706794159,0.014,0.1685,0.1825,0.0835706794159,0.014,0.1685,0.1825,0.0835706794159,0.014,0.1685,0.1825,0.0835706794159,0.014,0.1685,0.1825,0.0835706794159
34600000,99.6791259162,143.314799179,77.861289285,0.7655,0.2025,0.546,0.013,0.198,0.211,0.093085909737,0.013,0.198,0.211,0.093085909737,0.013,0.198,0.211,0.093085909737,0.013,0.198,0.211,0.093085909737,0.013,0.198,0.211,0.093085909737,0.013,0.1965,0.2095,0.0938299573561
34600000,99.7499183763,145.257298331,76.9962283989,0.762,0.1845,0.5715,0.029,0.184,0.213,0.157608695652,0.029,0.184,0.213,0.157608695652,0.029,0.184,0.213,0.157608695652,0.029,0.184,0.213,0.157608695652,0.029,0.184,0.213,0.157608695652,0.029,0.184,0.213,0.157608695652
34600000,99.8585321732,145.223745322,77.175925599,0.735,0.1775,0.563,0.015,0.1685,0.1835,0.089333460657,0.015,0.1685,0.1835,0.089333460657,0.015,0.1685,0.1835,0.089333460657,0.015,0.1685,0.1835,0.089333460657,0.015,0.1685,0.1835,0.089333460657,0.015,0.1685,0.1835,0.089333460657
34600000,99.9528190871,139.962924415,79.9477664233,0.6855,0.171,0.509,0.008,0.1545,0.1625,0.0533714473932,0.008,0.1545,0.1625,0.0533714473932,0.008,0.1525,0.1605,0.0538890457369,0.008,0.1525,0.1605,0.0538890457369,0.008,0.1525,0.1605,0.0538890457369,0.008,0.1525,0.1605,0.0538890457369
34600000,100.001544857,145.451183594,77.2767254877,0.758,0.185,0.5695,0.0225,0.1705,0.193,0.130243918219,0.0225,0.1705,0.193,0.130243918219,0.0225,0.1705,0.193,0.130243918219,0.0225,0.1705,0.193,0.130243918219,0.0225,0.1705,0.193,0.130243918219,0.0225,0.1705,0.193,0.130243918219
34600000,101.058723201,146.774714669,78.2007274673,0.766,0.183,0.5785,0.018,0.183,0.201,0.0985671936759,0.018,0.183,0.201,0.0985671936759,0.018,0.183,0.201,0.0985671936759,0.018,0.183,0.201,0.0985671936759,0.018,0.183,0.201,0.0985671936759,0.018,0.183,0.201,0.0985671936759
34600000,101.076396324,146.410281247,78.4094538623,0.7735,0.1865,0.5825,0.009,0.186,0.195,0.0487355895916,0.009,0.186,0.195,0.0487355895916,0.009,0.186,0.195,0.0487355895916,0.009,0.186,0.195,0.0487355895916,0.009,0.186,0.195,0.0487355895916,0.0085,0.186,0.1945,0.0458946805007
34600000,101.118928412,145.811008173,78.772888531,0.7105,0.1975,0.5355,0.011,0.1915,0.2025,0.059347355543,0.011,0.1915,0.2025,0.059347355543,0.011,0.1915,0.2025,0.059347355543,0.011,0.1915,0.2025,0.059347355543,0.011,0.1915,0.2025,0.059347355543,0.011,0.1915,0.2025,0.059347355543
34600000,101.177165292,146.460719783,78.5353880463,0.779,0.184,0.591,0.025,0.163,0.188,0.142155248134,0.025,0.163,0.188,0.142155248134,0.025,0.163,0.188,0.142155248134,0.025,0.163,0.188,0.142155248134,0.025,0.163,0.188,0.142155248134,0.025,0.163,0.188,0.142155248134
34600000,101.608918135,146.75741296,79.0346707225,0.742,0.1895,0.5575,0.014,0.177,0.191,0.0807453416149,0.013,0.177,0.19,0.0747929606625,0.013,0.177,0.19,0.0747929606625,0.013,0.177,0.19,0.0747929606625,0.013,0.177,0.19,0.0747929606625,0.013,0.177,0.19,0.0747929606625
34600000,101.700219105,145.894065183,79.6032960658,0.7355,0.182,0.555,0.0185,0.1775,0.196,0.104516633729,0.0185,0.1775,0.196,0.104516633729,0.0185,0.1775,0.196,0.104516633729,0.0185,0.1775,0.196,0.104516633729,0.0185,0.1775,0.196,0.104516633729,0.0185,0.1775,0.196,0.104516633729
34600000,103.043485003,149.552103712,79.7891756486,0.766,0.204,0.556,0.008,0.204,0.212,0.0393518518519,0.008,0.204,0.212,0.0393518518519,0.008,0.204,0.212,0.0393518518519,0.008,0.204,0.212,0.0393518518519,0.008,0.204,0.212,0.0393518518519,0.008,0.204,0.212,0.0393518518519
34600000,103.212124403,148.63026737,80.5030529195,0.7485,0.187,0.5655,0.013,0.184,0.197,0.0704936594203,0.013,0.184,0.197,0.0704936594203,0.013,0.184,0.197,0.0704936594203,0.013,0.184,0.197,0.0704936594203,0.013,0.184,0.197,0.0704936594203,0.013,0.184,0.197,0.0704936594203
34600000,103.3079457,149.125321093,80.3992580032,0.722,0.1975,0.5445,0.009,0.1885,0.1975,0.0473706547076,0.009,0.1885,0.1975,0.0473706547076,0.009,0.1885,0.1975,0.0473706547076,0.009,0.1885,0.1975,0.0473706547076,0.009,0.1885,0.1975,0.0473706547076,0.009,0.1885,0.1975,0.0473706547076
34600000,103.332858965,149.011949247,80.4933138243,0.7065,0.1845,0.521,0.018,0.1815,0.1995,0.100143515904,0.018,0.1815,0.1995,0.100143515904,0.018,0.1815,0.1995,0.100143515904,0.018,0.1815,0.1995,0.100143515904,0.018,0.1815,0.1995,0.100143515904,0.018,0.1815,0.1995,0.100143515904
34600000,104.183664299,148.808061369,81.8714657636,0.7365,0.1775,0.536,0.0175,0.1725,0.19,0.0981178242048,0.0175,0.1725,0.19,0.0981178242048,0.0175,0.1725,0.19,0.0981178242048,0.0175,0.1725,0.19,0.0981178242048,0.0175,0.1725,0.19,0.0981178242048,0.0175,0.1725,0.19,0.0981178242048
34600000,104.194364438,147.70428023,82.4394065414,0.741,0.1835,0.558,0.0095,0.18,0.1895,0.0539196310935,0.0095,0.18,0.1895,0.0539196310935,0.0095,0.18,0.1895,0.0539196310935,0.0095,0.18,0.1895,0.0539196310935,0.0095,0.18,0.1895,0.0539196310935,0.0095,0.18,0.1895,0.0539196310935
34600000,104.726640216,149.566240495,82.3068400767,0.6925,0.181,0.51,0.0125,0.172,0.1845,0.0713083041101,0.0125,0.172,0.1845,0.0713083041101,0.0125,0.172,0.1845,0.0713083041101,0.0125,0.172,0.1845,0.0713083041101,0.0125,0.172,0.1845,0.0713083041101,0.0125,0.172,0.1845,0.0713083041101
34600000,104.94546656,149.550274945,82.6430623668,0.747,0.195,0.549,0.01,0.1865,0.1965,0.0537899962356,0.01,0.1865,0.1965,0.0537899962356,0.01,0.1865,0.1965,0.0537899962356,0.01,0.1865,0.1965,0.0537899962356,0.01,0.1865,0.1965,0.0537899962356,0.01,0.1865,0.1965,0.0537899962356
34640000,100.448116023,143.375222385,78.9845628419,0.7965,0.189,0.608,0.0135,0.1795,0.193,0.0775764357126,0.0135,0.1795,0.193,0.0775764357126,0.0135,0.1795,0.193,0.0775764357126,0.0135,0.1795,0.193,0.0775764357126,0.0135,0.1795,0.193,0.0775764357126,0.0135,0.1795,0.193,0.0775764357126
34640000,102.912865087,147.919421458,80.4095869021,0.7955,0.1915,0.6125,0.023,0.1905,0.2135,0.120141633729,0.023,0.1905,0.2135,0.120141633729,0.023,0.1905,0.2135,0.120141633729,0.023,0.1905,0.2135,0.120141633729,0.023,0.1905,0.2135,0.120141633729,0.023,0.1905,0.2135,0.120141633729
34640000,103.41331087,147.359696959,81.4401178259,0.81,0.1755,0.621,0.0135,0.1665,0.18,0.0843623737374,0.0135,0.1665,0.18,0.0843623737374,0.0135,0.1665,0.18,0.0843623737374,0.0135,0.1665,0.18,0.0843623737374,0.0135,0.1665,0.18,0.0843623737374,0.0135,0.1665,0.18,0.0843623737374
34640000,103.666200056,143.911109293,83.5437454369,0.74,0.1745,0.5495,0.014,0.1645,0.1785,0.0841084866221,0.014,0.1645,0.1785,0.0841084866221,0.014,0.1645,0.1785,0.0841084866221,0.014,0.1645,0.1785,0.0841084866221,0.014,0.1645,0.1785,0.0841084866221,0.014,0.1645,0.1785,0.0841084866221
34640000,104.316971856,147.521017936,82.7149488156,0.7945,0.1905,0.6085,0.0205,0.1755,0.196,0.113651656315,0.0205,0.1755,0.196,0.113651656315,0.0205,0.1755,0.196,0.113651656315,0.0205,0.1755,0.196,0.113651656315,0.0205,0.1755,0.196,0.113651656315,0.0205,0.1755,0.196,0.113651656315
34640000,104.541869499,149.323147313,82.1512305916,0.799,0.192,0.6065,0.016,0.192,0.208,0.0833333333333,0.016,0.192,0.208,0.0833333333333,0.016,0.192,0.208,0.0833333333333,0.016,0.192,0.208,0.0833333333333,0.016,0.192,0.208,0.0833333333333,0.016,0.192,0.208,0.0833333333333
34640000,105.265770895,149.705371608,83.045970538,0.7995,0.1885,0.607,0.014,0.1785,0.1925,0.0791317287785,0.014,0.1785,0.1925,0.0791317287785,0.014,0.1785,0.1925,0.0791317287785,0.014,0.1785,0.1925,0.0791317287785,0.014,0.1785,0.1925,0.0791317287785,0.014,0.1785,0.1925,0.0791317287785
34640000,105.322011825,149.699859456,83.1330880095,0.8135,0.2495,0.6275,0.0215,0.2405,0.262,0.115469426407,0.0215,0.2405,0.262,0.115469426407,0.0215,0.2405,0.262,0.115469426407,0.0215,0.2405,0.262,0.115469426407,0.0215,0.2405,0.262,0.115469426407,0.0215,0.2405,0.262,0.115469426407
34640000,105.525793725,149.942701523,83.3173398259,0.751,0.1815,0.572,0.0165,0.1745,0.191,0.0936735366083,0.0165,0.1745,0.191,0.0936735366083,0.0165,0.1745,0.191,0.0936735366083,0.0165,0.1745,0.191,0.0936735366083,0.0165,0.1745,0.191,0.0936735366083,0.0165,0.1585,0.175,0.103774546709
34640000,106.032660938,149.235078406,84.4314522046,0.8015,0.202,0.604,0.026,0.198,0.224,0.126367845118,0.026,0.198,0.224,0.126367845118,0.026,0.198,0.224,0.126367845118,0.026,0.198,0.224,0.126367845118,0.026,0.198,0.224,0.126367845118,0.026,0.198,0.224,0.126367845118
34640000,106.923164648,149.420067271,85.6747133371,0.792,0.184,0.6,0.016,0.176,0.192,0.0909090909091,0.016,0.176,0.192,0.0909090909091,0.016,0.176,0.192,0.0909090909091,0.016,0.176,0.192,0.0909090909091,0.016,0.176,0.192,0.0909090909091,0.016,0.176,0.192,0.0909090909091
34760000,100.090506754,147.318369895,76.4765751843,0.7375,0.1805,0.564,0.022,0.18,0.202,0.122317899492,0.022,0.18,0.202,0.122317899492,0.022,0.18,0.202,0.122317899492,0.022,0.16,0.182,0.140433841521,0.022,0.16,0.182,0.140433841521,0.022,0.16,0.182,0.140433841521
34760000,100.750400848,148.46319712,76.8940027121,0.7455,0.184,0.5615,0.0135,0.183,0.1965,0.0754399585921,0.0135,0.183,0.1965,0.0754399585921,0.0135,0.183,0.1965,0.0754399585921,0.0135,0.183,0.1965,0.0754399585921,0.0135,0.1825,0.196,0.0755634763787,0.0135,0.1825,0.196,0.0755634763787
34760000,100.809182233,149.282526389,76.5725101552,0.7465,0.167,0.561,0.013,0.159,0.172,0.0830741626794,0.013,0.159,0.172,0.0830741626794,0.013,0.159,0.172,0.0830741626794,0.013,0.159,0.172,0.0830741626794,0.013,0.159,0.172,0.0830741626794,0.013,0.159,0.172,0.0830741626794
34760000,101.062617675,149.544716605,76.8215682106,0.7335,0.191,0.544,0.01,0.1845,0.1945,0.0552573145246,0.01,0.1845,0.1945,0.0552573145246,0.01,0.1845,0.1945,0.0552573145246,0.01,0.1845,0.1945,0.0552573145246,0.01,0.1845,0.1945,0.0552573145246,0.01,0.1845,0.1945,0.0552573145246
34760000,101.936459646,150.167260755,77.821059091,0.717,0.194,0.5365,0.011,0.192,0.203,0.0578787878788,0.011,0.192,0.203,0.0578787878788,0.011,0.192,0.203,0.0578787878788,0.011,0.192,0.203,0.0578787878788,0.011,0.192,0.203,0.0578787878788,0.011,0.192,0.203,0.0578787878788
34760000,102.065261311,149.585471886,78.305156024,0.737,0.182,0.5535,0.0235,0.177,0.2005,0.134266774892,0.0235,0.177,0.2005,0.134266774892,0.0235,0.177,0.2005,0.134266774892,0.0235,0.177,0.2005,0.134266774892,0.023,0.177,0.2,0.131290584416,0.023,0.177,0.2,0.131290584416
34760000,102.750325972,150.156003984,79.0474869666,0.7255,0.172,0.55,0.0085,0.164,0.1725,0.0522342995169,0.0085,0.164,0.1725,0.0522342995169,0.0085,0.164,0.1725,0.0522342995169,0.0085,0.164,0.1725,0.0522342995169,0.0085,0.164,0.1725,0.0522342995169,0.0085,0.164,0.1725,0.0522342995169
34760000,102.779731675,149.892357025,79.2234189997,0.6585,0.1645,0.487,0.0105,0.1645,0.175,0.0696365832235,0.0105,0.1645,0.175,0.0696365832235,0.0105,0.1645,0.175,0.0696365832235,0.0105,0.1645,0.175,0.0696365832235,0.0105,0.1645,0.175,0.0696365832235,0.0105,0.1645,0.175,0.0696365832235
34760000,103.373791332,150.13493392,79.9932200378,0.7005,0.1855,0.5155,0.0145,0.181,0.1955,0.0794101731602,0.0145,0.181,0.1955,0.0794101731602,0.0145,0.178,0.1925,0.0804022366522,0.0145,0.178,0.1925,0.0804022366522,0.0145,0.178,0.1925,0.0804022366522,0.0145,0.178,0.1925,0.0804022366522
34760000,104.122653966,142.687783937,84.8400889801,0.7125,0.1975,0.5215,0.0265,0.1875,0.214,0.142575757576,0.0265,0.1875,0.214,0.142575757576,0.0265,0.1875,0.214,0.142575757576,0.0265,0.1875,0.214,0.142575757576,0.0265,0.1875,0.214,0.142575757576,0.0265,0.1875,0.214,0.142575757576
34760000,104.689732334,149.971349022,82.0489239903,0.721,0.164,0.549,0.0385,0.158,0.1965,0.263494318182,0.0385,0.158,0.1965,0.263494318182,0.0385,0.158,0.1965,0.263494318182,0.0385,0.158,0.1965,0.263494318182,0.0385,0.158,0.1965,0.263494318182,0.0385,0.158,0.1965,0.263494318182
34760000,104.78135515,144.76629751,84.7888839694,0.737,0.2075,0.5375,0.0315,0.198,0.2295,0.161094059614,0.0315,0.198,0.2295,0.161094059614,0.0315,0.198,0.2295,0.161094059614,0.0315,0.198,0.2295,0.161094059614,0.0315,0.198,0.2295,0.161094059614,0.0315,0.198,0.2295,0.161094059614
34760000,104.879334988,145.529105175,84.554449895,0.725,0.2,0.5255,0.015,0.2,0.215,0.075,0.015,0.2,0.215,0.075,0.015,0.2,0.215,0.075,0.015,0.2,0.215,0.075,0.015,0.2,0.215,0.075,0.015,0.2,0.215,0.075
34760000,105.368591832,145.346730796,85.3795223507,0.706,0.1945,0.5085,0.027,0.1825,0.2095,0.146438570487,0.027,0.1825,0.2095,0.146438570487,0.027,0.1825,0.2095,0.146438570487,0.027,0.1825,0.2095,0.146438570487,0.027,0.1825,0.2095,0.146438570487,0.027,0.1825,0.2095,0.146438570487
34760000,105.573038087,149.779839227,83.4696375176,0.719,0.1775,0.538,0.011,0.176,0.187,0.0633587427066,0.011,0.176,0.187,0.0633587427066,0.011,0.176,0.187,0.0633587427066,0.011,0.176,0.187,0.0633587427066,0.011,0.176,0.187,0.0633587427066,0.011,0.176,0.187,0.0633587427066
34760000,105.773437108,138.965968572,89.1771713765,0.766,0.1655,0.4995,0.014,0.1525,0.1665,0.088263439347,0.014,0.1525,0.1665,0.088263439347,0.014,0.1525,0.1665,0.088263439347,0.014,0.1525,0.1665,0.088263439347,0.014,0.1525,0.1665,0.088263439347,0.014,0.1525,0.1665,0.088263439347
34760000,105.926899155,148.885678688,84.4475093894,0.7155,0.1825,0.5365,0.0135,0.182,0.1955,0.0748103119706,0.0135,0.182,0.1955,0.0748103119706,0.0135,0.182,0.1955,0.0748103119706,0.0135,0.182,0.1955,0.0748103119706,0.0135,0.182,0.1955,0.0748103119706,0.0095,0.182,0.1915,0.0510007881611
34760000,106.240268843,150.52099438,84.0999060747,0.698,0.1705,0.528,0.0275,0.1695,0.197,0.162472943723,0.0275,0.1695,0.197,0.162472943723,0.0275,0.1695,0.197,0.162472943723,0.0275,0.1695,0.197,0.162472943723,0.0275,0.1695,0.197,0.162472943723,0.0275,0.1695,0.197,0.162472943723
34760000,106.339065094,150.284511863,84.3663417092,0.725,0.176,0.549,0.02,0.1685,0.1885,0.117872807018,0.02,0.1685,0.1885,0.117872807018,0.02,0.1685,0.1885,0.117872807018,0.02,0.1685,0.1885,0.117872807018,0.02,0.1685,0.1885,0.117872807018,0.02,0.1685,0.1885,0.117872807018
34760000,106.531770018,145.603757959,86.9957760479,0.708,0.2385,0.4655,0.012,0.233,0.245,0.0555475774226,0.012,0.233,0.245,0.0555475774226,0.012,0.233,0.245,0.0555475774226,0.012,0.233,0.245,0.0555475774226,0.012,0.233,0.245,0.0555475774226,0.012,0.233,0.245,0.0555475774226
34760000,107.08432067,150.272537528,85.4902122409,0.711,0.177,0.5365,0.0155,0.1505,0.166,0.108256939139,0.0155,0.1505,0.166,0.108256939139,0.0155,0.1505,0.166,0.108256939139,0.0155,0.1505,0.166,0.108256939139,0.0155,0.1505,0.166,0.108256939139,0.0155,0.1505,0.166,0.108256939139
34760000,107.104663156,148.071296744,86.6213463614,0.7195,0.1955,0.5265,0.0105,0.1875,0.198,0.0573749529456,0.0105,0.1875,0.198,0.0573749529456,0.0105,0.1875,0.198,0.0573749529456,0.0105,0.1875,0.198,0.0573749529456,0.0105,0.1875,0.198,0.0573749529456,0.0105,0.1875,0.198,0.0573749529456
34760000,107.255688432,150.31703792,85.7250136883,0.7645,0.1775,0.587,0.022,0.173,0.195,0.129081968756,0.022,0.173,0.195,0.129081968756,0.022,0.173,0.195,0.129081968756,0.022,0.173,0.195,0.129081968756,0.022,0.173,0.195,0.129081968756,0.022,0.173,0.195,0.129081968756
34760000,107.433588041,148.819685619,86.7405392519,0.7165,0.1985,0.517,0.014,0.196,0.21,0.0705009754738,0.014,0.196,0.21,0.0705009754738,0.014,0.196,0.21,0.0705009754738,0.014,0.196,0.21,0.0705009754738,0.014,0.196,0.21,0.0705009754738,0.014,0.196,0.21,0.0705009754738
34760000,107.538169247,148.593189228,87.010659256,0.7165,0.208,0.511,0.0455,0.201,0.2465,0.223347588791,0.0455,0.201,0.2465,0.223347588791,0.0455,0.201,0.2465,0.223347588791,0.0455,0.201,0.2465,0.223347588791,0.0455,0.201,0.2465,0.223347588791,0.0455,0.201,0.2465,0.223347588791
34760000,107.732718971,150.490002496,86.354077209,0.6955,0.177,0.5225,0.0115,0.1645,0.176,0.0701498682477,0.0115,0.1645,0.176,0.0701498682477,0.0115,0.1645,0.176,0.0701498682477,0.0115,0.1645,0.176,0.0701498682477,0.0115,0.1645,0.176,0.0701498682477,0.0115,0.1645,0.176,0.0701498682477
34760000,107.758212775,150.116934202,86.5788520611,0.751,0.1785,0.5695,0.0135,0.178,0.1915,0.0763575192923,0.0135,0.178,0.1915,0.0763575192923,0.0135,0.178,0.1915,0.0763575192923,0.0135,0.178,0.1915,0.0763575192923,0.0135,0.178,0.1915,0.0763575192923,0.0135,0.178,0.1915,0.0763575192923
34760000,108.070141777,145.988789096,89.1108181182,0.6845,0.186,0.482,0.0155,0.1835,0.199,0.0848670125165,0.0155,0.1835,0.199,0.0848670125165,0.0155,0.1835,0.199,0.0848670125165,0.0155,0.1835,0.199,0.0848670125165,0.0155,0.1835,0.199,0.0848670125165,0.0155,0.1835,0.199,0.0848670125165
34760000,108.314315402,150.083586979,87.4296796132,0.7605,0.1835,0.581,0.0085,0.1795,0.188,0.0474308300395,0.0085,0.1795,0.188,0.0474308300395,0.0085,0.1795,0.188,0.0474308300395,0.0085,0.1795,0.188,0.0474308300395,0.0085,0.1795,0.188,0.0474308300395,0.0085,0.1795,0.188,0.0474308300395
34760000,108.357880434,150.681055968,87.1962926666,0.661,0.2025,0.492,0.0265,0.1945,0.221,0.136363636364,0.0245,0.1945,0.219,0.124458874459,0.0245,0.1945,0.219,0.124458874459,0.0245,0.1945,0.219,0.124458874459,0.0225,0.1925,0.215,0.109875541126,0.0225,0.1925,0.215,0.109875541126
34760000,108.566676642,150.11433033,87.7928497977,0.726,0.18,0.5485,0.0155,0.1705,0.186,0.0913932558669,0.0155,0.1705,0.186,0.0913932558669,0.0155,0.1705,0.186,0.0913932558669,0.0155,0.1705,0.186,0.0913932558669,0.0155,0.1705,0.186,0.0913932558669,0.0155,0.1705,0.186,0.0913932558669
34760000,108.780432682,150.001988239,88.1696549034,0.703,0.1765,0.5235,0.016,0.176,0.192,0.0895459839074,0.016,0.176,0.192,0.0895459839074,0.016,0.176,0.192,0.0895459839074,0.016,0.176,0.192,0.0895459839074,0.016,0.176,0.192,0.0895459839074,0.016,0.176,0.192,0.0895459839074
34760000,108.943285699,148.531449488,89.1492038047,0.6755,0.219,0.4525,0.014,0.2165,0.2305,0.0677354443802,0.014,0.2165,0.2305,0.0677354443802,0.014,0.2165,0.2305,0.0677354443802,0.014,0.2165,0.2305,0.0677354443802,0.014,0.2165,0.2305,0.0677354443802,0.014,0.2165,0.2305,0.0677354443802
34760000,108.977074825,150.623201425,88.1540115256,0.618,0.165,0.4185,0.015,0.15,0.165,0.101036104755,0.015,0.15,0.165,0.101036104755,0.015,0.15,0.165,0.101036104755,0.015,0.15,0.165,0.101036104755,0.015,0.15,0.165,0.101036104755,0.015,0.15,0.165,0.101036104755
34760000,109.131209451,150.177809546,88.6079094037,0.7585,0.1775,0.5795,0.0165,0.166,0.1825,0.102115787026,0.0165,0.166,0.1825,0.102115787026,0.0165,0.166,0.1825,0.102115787026,0.0165,0.166,0.1825,0.102115787026,0.0165,0.166,0.1825,0.102115787026,0.0165,0.166,0.1825,0.102115787026
34760000,109.33852618,149.483843382,89.2658675795,0.697,0.201,0.491,0.014,0.195,0.209,0.0718013468013,0.014,0.195,0.209,0.0718013468013,0.014,0.195,0.209,0.0718013468013,0.013,0.195,0.208,0.0668013468013,0.013,0.195,0.208,0.0668013468013,0.013,0.195,0.208,0.0668013468013
34760000,109.463213944,150.179098761,89.1052715364,0.7345,0.1745,0.558,0.034,0.156,0.19,0.22729468599,0.034,0.156,0.19,0.22729468599,0.034,0.156,0.19,0.22729468599,0.034,0.156,0.19,0.22729468599,0.034,0.156,0.19,0.22729468599,0.034,0.156,0.19,0.22729468599
34760000,109.800536228,150.504292217,89.4486582329,0.656,0.165,0.491,0.0155,0.1545,0.17,0.0993386243386,0.0155,0.1545,0.17,0.0993386243386,0.0155,0.1545,0.17,0.0993386243386,0.0155,0.1545,0.17,0.0993386243386,0.0155,0.1545,0.17,0.0993386243386,0.0155,0.1545,0.17,0.0993386243386
34760000,110.391358622,149.527351798,90.8233620338,0.6615,0.2835,0.4555,0.0145,0.2775,0.292,0.0540237977602,0.0145,0.2775,0.292,0.0540237977602,0.0145,0.2775,0.292,0.0540237977602,0.0145,0.2775,0.292,0.0540237977602,0.0145,0.2775,0.292,0.0540237977602,0.0145,0.2775,0.292,0.0540237977602
34760000,110.601139812,149.766232558,91.0185934388,0.708,0.211,0.5095,0.021,0.2035,0.2245,0.107591177878,0.021,0.2035,0.2245,0.107591177878,0.021,0.2035,0.2245,0.107591177878,0.021,0.2035,0.2245,0.107591177878,0.021,0.2035,0.2245,0.107591177878,0.021,0.2035,0.2245,0.107591177878
34800000,103.181079624,147.075341867,81.2339485023,0.6865,0.1855,0.505,0.0115,0.185,0.1965,0.0627244235703,0.0115,0.185,0.1965,0.0627244235703,0.0115,0.185,0.1965,0.0627244235703,0.0115,0.185,0.1965,0.0627244235703,0.0115,0.185,0.1965,0.0627244235703,0.0115,0.185,0.1965,0.0627244235703
34800000,103.700973368,143.982503516,83.5602082934,0.6625,0.1705,0.45,0.011,0.165,0.176,0.0685005993244,0.011,0.165,0.176,0.0685005993244,0.011,0.165,0.176,0.0685005993244,0.011,0.165,0.176,0.0685005993244,0.011,0.165,0.176,0.0685005993244,0.011,0.165,0.176,0.0685005993244
34800000,103.90563984,141.225690835,85.245614342,0.6435,0.226,0.4565,0.0155,0.226,0.2415,0.0798790322581,0.0155,0.226,0.2415,0.0798790322581,0.0155,0.226,0.2415,0.0798790322581,0.0155,0.226,0.2415,0.0798790322581,0.0155,0.226,0.2415,0.0798790322581,0.0155,0.226,0.2415,0.0798790322581
34800000,104.332161075,146.402412969,83.2970351275,0.664,0.2015,0.4345,0.018,0.1895,0.2075,0.0995498351763,0.018,0.1815,0.1995,0.101152399279,0.018,0.1815,0.1995,0.101152399279,0.018,0.1815,0.1995,0.101152399279,0.018,0.1815,0.1995,0.101152399279,0.018,0.1815,0.1995,0.101152399279
34800000,104.921700446,149.12512792,82.8199867086,0.6835,0.181,0.497,0.0115,0.18,0.1915,0.0645009881423,0.0115,0.18,0.1915,0.0645009881423,0.0115,0.18,0.1915,0.0645009881423,0.0115,0.18,0.1915,0.0645009881423,0.0115,0.18,0.1915,0.0645009881423,0.0115,0.18,0.1915,0.0645009881423
34800000,105.150609969,148.639353789,83.406238059,0.6725,0.2,0.4845,0.0195,0.181,0.2005,0.112497293603,0.0195,0.181,0.2005,0.112497293603,0.0195,0.181,0.2005,0.112497293603,0.0195,0.181,0.2005,0.112497293603,0.0195,0.181,0.2005,0.112497293603,0.0195,0.181,0.2005,0.112497293603
34800000,105.917054054,148.306425725,84.7223682182,0.69,0.1865,0.427,0.0175,0.186,0.2035,0.0957985424901,0.0175,0.186,0.2035,0.0957985424901,0.0175,0.186,0.2035,0.0957985424901,0.0175,0.186,0.2035,0.0957985424901,0.0175,0.186,0.2035,0.0957985424901,0.0175,0.186,0.2035,0.0957985424901
34800000,106.97596579,149.485421399,85.7212379854,0.691,0.201,0.499,0.023,0.1925,0.2155,0.119453227931,0.023,0.1925,0.2155,0.119453227931,0.023,0.1925,0.2155,0.119453227931,0.023,0.1925,0.2155,0.119453227931,0.021,0.1925,0.2135,0.108583662714,0.021,0.1925,0.2135,0.108583662714
34800000,107.138146407,149.665068049,85.8746855866,0.6505,0.1935,0.465,0.011,0.1915,0.2025,0.0589303506729,0.011,0.1915,0.2025,0.0589303506729,0.011,0.1915,0.2025,0.0589303506729,0.011,0.1915,0.2025,0.0589303506729,0.011,0.1915,0.2025,0.0589303506729,0.011,0.1915,0.2025,0.0589303506729
34800000,107.377084788,149.978464851,86.0763947559,0.63,0.201,0.4,0.0165,0.1885,0.205,0.0895182001446,0.0165,0.1885,0.205,0.0895182001446,0.0165,0.1885,0.205,0.0895182001446,0.0165,0.1885,0.205,0.0895182001446,0.0165,0.1885,0.205,0.0895182001446,0.0125,0.1885,0.201,0.0677790697098
34800000,108.078787652,149.886926361,87.1747182981,0.658,0.204,0.3485,0.0145,0.1975,0.212,0.0795276369971,0.0145,0.1975,0.212,0.0795276369971,0.0145,0.1975,0.212,0.0795276369971,0.0145,0.1975,0.212,0.0795276369971,0.0145,0.1975,0.212,0.0795276369971,0.0145,0.1975,0.212,0.0795276369971
34800000,108.574699838,150.284560966,87.7197692743,0.645,0.186,0.423,0.012,0.178,0.19,0.0673626163458,0.012,0.178,0.19,0.0673626163458,0.012,0.178,0.19,0.0673626163458,0.012,0.178,0.19,0.0673626163458,0.012,0.178,0.19,0.0673626163458,0.012,0.178,0.19,0.0673626163458
34800000,110.059604817,148.212183173,90.9833156382,0.569,0.196,0.362,0.0105,0.1925,0.203,0.0557387278583,0.0105,0.1925,0.203,0.0557387278583,0.0105,0.1925,0.203,0.0557387278583,0.0105,0.1925,0.203,0.0557387278583,0.0105,0.1925,0.203,0.0557387278583,0.0105,0.1925,0.203,0.0557387278583
34840000,88.7952489006,118.220149139,74.0827987812,0.689,0.178,0.409,0.0105,0.177,0.1875,0.0606328227931,0.0105,0.177,0.1875,0.0606328227931,0.0105,0.177,0.1875,0.0606328227931,0.0105,0.177,0.1875,0.0606328227931,0.0105,0.177,0.1875,0.0606328227931,0.0105,0.177,0.1875,0.0606328227931
34840000,90.432043887,127.941901943,71.6771148588,0.692,0.177,0.5215,0.0135,0.1755,0.189,0.0768543146404,0.0135,0.1755,0.189,0.0768543146404,0.0135,0.1755,0.189,0.0768543146404,0.0135,0.1755,0.189,0.0768543146404,0.0135,0.1755,0.189,0.0768543146404,0.0135,0.1755,0.189,0.0768543146404
34840000,91.3331781477,129.222027415,72.388753514,0.685,0.173,0.5175,0.02,0.17,0.19,0.115448896863,0.02,0.17,0.19,0.115448896863,0.02,0.17,0.19,0.115448896863,0.02,0.17,0.19,0.115448896863,0.02,0.17,0.19,0.115448896863,0.02,0.17,0.19,0.115448896863
34840000,91.8636761369,129.331385479,73.1298214656,0.68,0.171,0.5095,0.012,0.15,0.162,0.0772816579705,0.012,0.15,0.162,0.0772816579705,0.012,0.15,0.162,0.0772816579705,0.012,0.15,0.162,0.0772816579705,0.012,0.15,0.162,0.0772816579705,0.012,0.15,0.162,0.0772816579705
34840000,91.9058923887,128.910732926,73.4034721197,0.687,0.1765,0.5145,0.012,0.162,0.174,0.0744435817805,0.012,0.162,0.174,0.0744435817805,0.012,0.162,0.174,0.0744435817805,0.012,0.162,0.174,0.0744435817805,0.012,0.162,0.174,0.0744435817805,0.012,0.162,0.174,0.0744435817805
34840000,91.9307637675,129.372859367,73.2097159676,0.6945,0.1765,0.5165,0.0155,0.1615,0.177,0.0973630809979,0.0155,0.1615,0.177,0.0973630809979,0.0155,0.1615,0.177,0.0973630809979,0.0155,0.1615,0.177,0.0973630809979,0.0155,0.1615,0.177,0.0973630809979,0.0155,0.1615,0.177,0.0973630809979
34840000,92.3300202356,129.955861315,73.5170996958,0.6935,0.1765,0.5125,0.0115,0.164,0.1755,0.06875,0.0115,0.164,0.1755,0.06875,0.0115,0.164,0.1755,0.06875,0.0115,0.164,0.1755,0.06875,0.0115,0.164,0.1755,0.06875,0.0115,0.164,0.1755,0.06875
34840000,92.6802322361,130.575599216,73.732548746,0.6935,0.175,0.5135,0.0125,0.1715,0.184,0.0736536561265,0.0125,0.1715,0.184,0.0736536561265,0.0125,0.1715,0.184,0.0736536561265,0.0125,0.1715,0.184,0.0736536561265,0.0125,0.1715,0.184,0.0736536561265,0.0125,0.1715,0.184,0.0736536561265
34840000,92.7892104778,132.427808654,72.9699113899,0.684,0.17,0.516,0.015,0.164,0.179,0.0925865800866,0.015,0.164,0.179,0.0925865800866,0.015,0.164,0.179,0.0925865800866,0.015,0.164,0.179,0.0925865800866,0.015,0.164,0.179,0.0925865800866,0.015,0.164,0.179,0.0925865800866
34840000,93.6607640625,132.290736911,74.3457776381,0.6925,0.2115,0.4935,0.0135,0.194,0.2075,0.0679800462695,0.0135,0.194,0.2075,0.0679800462695,0.0135,0.194,0.2075,0.0679800462695,0.0135,0.194,0.2075,0.0679800462695,0.0135,0.194,0.2075,0.0679800462695,0.0135,0.194,0.2075,0.0679800462695
34840000,93.7960992739,131.686679185,74.8508093184,0.6735,0.1745,0.4995,0.0125,0.1605,0.173,0.0810139437857,0.0125,0.1565,0.169,0.0820491404731,0.0125,0.1565,0.169,0.0820491404731,0.0125,0.1565,0.169,0.0820491404731,0.0125,0.1565,0.169,0.0820491404731,0.0125,0.1565,0.169,0.0820491404731
34840000,93.8038688643,134.653294606,73.3791559936,0.701,0.1965,0.53,0.01,0.1895,0.1995,0.0590674603175,0.01,0.1895,0.1995,0.0590674603175,0.01,0.1895,0.1995,0.0590674603175,0.01,0.1895,0.1995,0.0590674603175,0.01,0.1895,0.1995,0.0590674603175,0.01,0.1895,0.1995,0.0590674603175
34840000,94.0107219944,131.398369625,75.316898179,0.678,0.176,0.5055,0.009,0.172,0.181,0.0522727272727,0.009,0.172,0.181,0.0522727272727,0.009,0.172,0.181,0.0522727272727,0.009,0.172,0.181,0.0522727272727,0.009,0.172,0.181,0.0522727272727,0.009,0.172,0.181,0.0522727272727
34840000,94.101077382,129.13266255,76.5852847979,0.656,0.168,0.48,0.008,0.16,0.168,0.05,0.008,0.16,0.168,0.05,0.008,0.16,0.168,0.05,0.008,0.16,0.168,0.05,0.008,0.16,0.168,0.05,0.008,0.16,0.168,0.05
34840000,94.4600280493,135.378006964,74.001038592,0.6855,0.1755,0.514,0.0175,0.167,0.1845,0.107102272727,0.0175,0.167,0.1845,0.107102272727,0.0175,0.167,0.1845,0.107102272727,0.0175,0.167,0.1845,0.107102272727,0.0175,0.167,0.1845,0.107102272727,0.0175,0.167,0.1845,0.107102272727
34840000,94.5970591035,132.577723868,75.606726721,0.6815,0.1805,0.5035,0.025,0.169,0.194,0.149025974026,0.025,0.169,0.194,0.149025974026,0.025,0.169,0.194,0.149025974026,0.025,0.169,0.194,0.149025974026,0.025,0.169,0.194,0.149025974026,0.025,0.169,0.194,0.149025974026
34840000,94.6227658127,130.603811141,76.6322431487,0.652,0.1895,0.472,0.025,0.186,0.211,0.136181707785,0.025,0.186,0.211,0.136181707785,0.025,0.186,0.211,0.136181707785,0.025,0.186,0.211,0.136181707785,0.017,0.186,0.203,0.0927034469154,0.017,0.186,0.203,0.0927034469154
34840000,94.7979313585,130.071912597,77.1609407391,0.651,0.1865,0.462,0.009,0.1775,0.1865,0.051204004329,0.009,0.1775,0.1865,0.051204004329,0.009,0.1775,0.1865,0.051204004329,0.009,0.1775,0.1865,0.051204004329,0.009,0.1775,0.1865,0.051204004329,0.009,0.1775,0.1865,0.051204004329
34840000,95.4359761996,136.666490564,74.8207190175,0.68,0.171,0.507,0.01,0.1665,0.1765,0.0604166666667,0.01,0.1665,0.1765,0.0604166666667,0.01,0.1665,0.1765,0.0604166666667,0.01,0.1665,0.1765,0.0604166666667,0.01,0.1665,0.1765,0.0604166666667,0.01,0.1665,0.1765,0.0604166666667
34840000,95.6069787735,137.396006624,74.7124648481,0.672,0.1765,0.4945,0.0255,0.168,0.1935,0.152286255411,0.0255,0.168,0.1935,0.152286255411,0.0255,0.168,0.1935,0.152286255411,0.0255,0.167,0.1925,0.152944150148,0.0255,0.167,0.1925,0.152944150148,0.0255,0.167,0.1925,0.152944150148
34840000,96.0030861502,136.282447062,75.8634056944,0.6725,0.173,0.482,0.0255,0.17,0.1955,0.149934495329,0.0255,0.17,0.1955,0.149934495329,0.0255,0.17,0.1955,0.149934495329,0.0255,0.17,0.1955,0.149934495329,0.0255,0.17,0.1955,0.149934495329,0.0255,0.17,0.1955,0.149934495329
34840000,96.3418406333,138.992221789,75.0166500555,0.6715,0.1735,0.4955,0.0145,0.1715,0.186,0.0879329004329,0.0145,0.1715,0.186,0.0879329004329,0.0145,0.1715,0.186,0.0879329004329,0.0145,0.1715,0.186,0.0879329004329,0.0145,0.1715,0.186,0.0879329004329,0.0145,0.1715,0.186,0.0879329004329
34840000,96.8371997147,139.143739114,75.6839300152,0.697,0.178,0.5205,0.0085,0.166,0.1745,0.0515369451296,0.0085,0.166,0.1745,0.0515369451296,0.0085,0.166,0.1745,0.0515369451296,0.0085,0.166,0.1745,0.0515369451296,0.0085,0.166,0.1745,0.0515369451296,0.0085,0.166,0.1745,0.0515369451296
34840000,97.0948746983,138.8405888,76.2220176473,0.6655,0.1765,0.494,0.0135,0.151,0.1645,0.0856331168831,0.0135,0.151,0.1645,0.0856331168831,0.0135,0.151,0.1645,0.0856331168831,0.0135,0.151,0.1645,0.0856331168831,0.0135,0.151,0.1645,0.0856331168831,0.0135,0.151,0.1645,0.0856331168831
34840000,97.1407506585,135.416168166,78.0030419046,0.648,0.283,0.4185,0.01,0.277,0.287,0.048422071758,0.01,0.277,0.287,0.048422071758,0.01,0.277,0.287,0.048422071758,0.01,0.277,0.287,0.048422071758,0.01,0.277,0.287,0.048422071758,0.01,0.277,0.287,0.048422071758
34840000,97.2505882911,139.068427853,76.34166851,0.6685,0.1755,0.4965,0.0115,0.17,0.1815,0.0689166097061,0.0115,0.17,0.1815,0.0689166097061,0.0115,0.17,0.1815,0.0689166097061,0.0115,0.17,0.1815,0.0689166097061,0.0115,0.17,0.1815,0.0689166097061,0.0115,0.17,0.1815,0.0689166097061
34840000,97.2830572262,134.883159523,78.4830060776,0.6305,0.1765,0.454,0.0225,0.1725,0.195,0.136356187672,0.0225,0.1725,0.195,0.136356187672,0.0225,0.1725,0.195,0.136356187672,0.0225,0.1725,0.195,0.136356187672,0.0225,0.1725,0.195,0.136356187672,0.0225,0.1725,0.195,0.136356187672
34840000,98.2213317408,135.702958071,79.4805185755,0.6655,0.2095,0.4665,0.017,0.2025,0.2195,0.0884639266054,0.017,0.2025,0.2195,0.0884639266054,0.017,0.2025,0.2195,0.0884639266054,0.017,0.2025,0.2195,0.0884639266054,0.017,0.2025,0.2195,0.0884639266054,0.017,0.2025,0.2195,0.0884639266054
34840000,98.4599855151,140.960105493,77.2099255263,0.6705,0.1725,0.496,0.0105,0.1705,0.181,0.0618777056277,0.0105,0.1705,0.181,0.0618777056277,0.0105,0.1705,0.181,0.0618777056277,0.0105,0.1705,0.181,0.0618777056277,0.0105,0.1705,0.181,0.0618777056277,0.0105,0.1705,0.181,0.0618777056277
34840000,98.6343295886,142.355556689,76.7737160386,0.648,0.168,0.4905,0.0095,0.163,0.1725,0.058152173913,0.0095,0.163,0.1725,0.058152173913,0.0095,0.163,0.1725,0.058152173913,0.0095,0.163,0.1725,0.058152173913,0.0095,0.163,0.1725,0.058152173913,0.0095,0.163,0.1725,0.058152173913
34840000,98.7956674283,141.995780066,77.1956111095,0.6655,0.176,0.4905,0.018,0.1545,0.1725,0.116231392876,0.018,0.1545,0.1725,0.116231392876,0.018,0.1545,0.1725,0.116231392876,0.018,0.1545,0.1725,0.116231392876,0.018,0.1545,0.1725,0.116231392876,0.018,0.1545,0.1725,0.116231392876
34840000,99.2306424875,141.338248515,78.1768394735,0.6515,0.1625,0.492,0.0115,0.154,0.1655,0.0734623015873,0.0115,0.154,0.1655,0.0734623015873,0.0115,0.154,0.1655,0.0734623015873,0.0115,0.154,0.1655,0.0734623015873,0.0115,0.154,0.1655,0.0734623015873,0.0115,0.154,0.1655,0.0734623015873
34840000,100.387994901,143.330252794,78.9168659547,0.6605,0.1765,0.4915,0.0125,0.175,0.1875,0.0715026821005,0.0125,0.175,0.1875,0.0715026821005,0.0125,0.175,0.1875,0.0715026821005,0.0125,0.175,0.1875,0.0715026821005,0.0125,0.175,0.1875,0.0715026821005,0.0125,0.175,0.1875,0.0715026821005
34840000,100.442542346,143.864193931,78.7317165535,0.668,0.1745,0.4965,0.01,0.164,0.174,0.0622023809524,0.01,0.164,0.174,0.0622023809524,0.01,0.164,0.174,0.0622023809524,0.01,0.1635,0.1735,0.0627976190476,0.01,0.1635,0.1735,0.0627976190476,0.01,0.1635,0.1735,0.0627976190476
34840000,100.65249268,145.786203941,78.0856370501,0.668,0.168,0.4995,0.01,0.163,0.173,0.0616071428571,0.01,0.163,0.173,0.0616071428571,0.01,0.163,0.173,0.0616071428571,0.01,0.163,0.173,0.0616071428571,0.01,0.163,0.173,0.0616071428571,0.01,0.163,0.173,0.0616071428571
34840000,100.717542731,145.945275571,78.1036763102,0.6755,0.1705,0.5095,0.0115,0.167,0.1785,0.0696428571429,0.0115,0.167,0.1785,0.0696428571429,0.0115,0.167,0.1785,0.0696428571429,0.0115,0.167,0.1785,0.0696428571429,0.0115,0.167,0.1785,0.0696428571429,0.0115,0.167,0.1785,0.0696428571429
34840000,100.801714697,144.019971162,79.1925864647,0.6885,0.184,0.505,0.008,0.178,0.186,0.0452349582784,0.008,0.178,0.186,0.0452349582784,0.008,0.178,0.186,0.0452349582784,0.008,0.178,0.186,0.0452349582784,0.008,0.178,0.186,0.0452349582784,0.008,0.178,0.186,0.0452349582784
34840000,101.08737953,146.28715124,78.4874936745,0.668,0.1745,0.499,0.018,0.164,0.182,0.110160591697,0.018,0.164,0.182,0.110160591697,0.018,0.164,0.182,0.110160591697,0.018,0.164,0.182,0.110160591697,0.018,0.164,0.182,0.110160591697,0.018,0.164,0.182,0.110160591697
34840000,101.459609627,147.216782,78.58102344,0.6805,0.247,0.4805,0.0245,0.236,0.2605,0.10767021721,0.0245,0.236,0.2605,0.10767021721,0.0245,0.236,0.2605,0.10767021721,0.0245,0.236,0.2605,0.10767021721,0.0245,0.236,0.2605,0.10767021721,0.0245,0.236,0.2605,0.10767021721
34840000,101.963635165,147.794491977,79.0482067595,0.667,0.1715,0.501,0.0105,0.1645,0.175,0.0644793802689,0.0105,0.1645,0.175,0.0644793802689,0.0105,0.163,0.1735,0.0649279448622,0.0105,0.163,0.1735,0.0649279448622,0.0105,0.163,0.1735,0.0649279448622,0.0105,0.163,0.1735,0.0649279448622
34840000,102.05282684,145.853976463,80.152252028,0.6555,0.17,0.477,0.0375,0.1685,0.206,0.223268398268,0.0375,0.1685,0.206,0.223268398268,0.0375,0.1685,0.206,0.223268398268,0.0375,0.1685,0.206,0.223268398268,0.0375,0.1685,0.206,0.223268398268,0.0375,0.1685,0.206,0.223268398268
34840000,102.758371569,148.139872388,80.067621159,0.6005,0.281,0.376,0.0085,0.2775,0.286,0.0373827561328,0.0085,0.2775,0.286,0.0373827561328,0.0085,0.2775,0.286,0.0373827561328,0.0085,0.2775,0.286,0.0373827561328,0.0085,0.2775,0.286,0.0373827561328,0.0085,0.2775,0.286,0.0373827561328
34840000,102.823794706,148.40698175,80.0322011844,0.655,0.1615,0.49,0.011,0.1585,0.1695,0.0695436507937,0.011,0.1585,0.1695,0.0695436507937,0.011,0.1585,0.1695,0.0695436507937,0.011,0.1585,0.1695,0.0695436507937,0.011,0.1585,0.1695,0.0695436507937,0.011,0.1585,0.1695,0.0695436507937
34840000,103.163715977,148.877313153,80.3069173892,0.655,0.225,0.4815,0.032,0.223,0.255,0.175243877976,0.032,0.223,0.255,0.175243877976,0.032,0.223,0.255,0.175243877976,0.032,0.223,0.255,0.175243877976,0.032,0.223,0.255,0.175243877976,0.032,0.223,0.255,0.175243877976
34840000,103.682582794,149.030932425,81.0084079781,0.6585,0.1915,0.489,0.0145,0.181,0.1955,0.0904886217386,0.0145,0.181,0.1955,0.0904886217386,0.0145,0.181,0.1955,0.0904886217386,0.0145,0.181,0.1955,0.0904886217386,0.0145,0.181,0.1955,0.0904886217386,0.0145,0.181,0.1955,0.0904886217386
34840000,103.865967828,149.593516522,81.0021934806,0.6485,0.1675,0.4825,0.013,0.165,0.178,0.078394515701,0.013,0.165,0.178,0.078394515701,0.013,0.165,0.178,0.078394515701,0.013,0.165,0.178,0.078394515701,0.013,0.165,0.178,0.078394515701,0.013,0.165,0.178,0.078394515701
34840000,103.932529438,147.030797876,82.3833952184,0.631,0.2115,0.4545,0.019,0.2115,0.2305,0.1066256418,0.019,0.2115,0.2305,0.1066256418,0.019,0.2115,0.2305,0.1066256418,0.019,0.2115,0.2305,0.1066256418,0.019,0.2115,0.2305,0.1066256418,0.019,0.2115,0.2305,0.1066256418
34920000,84.1118426108,95.997941461,78.1687931857,0.764,0.174,0.59,0.013,0.1625,0.1755,0.0807460768398,0.013,0.1625,0.1755,0.0807460768398,0.013,0.1625,0.1755,0.0807460768398,0.013,0.1625,0.1755,0.0807460768398,0.013,0.1625,0.1755,0.0807460768398,0.013,0.1625,0.1755,0.0807460768398
34920000,87.5099780816,99.9838499486,81.2730421481,0.767,0.167,0.5995,0.013,0.166,0.179,0.0782738095238,0.013,0.166,0.179,0.0782738095238,0.013,0.166,0.179,0.0782738095238,0.013,0.166,0.179,0.0782738095238,0.011,0.1655,0.1765,0.0666979949875,0.011,0.1655,0.1765,0.0666979949875
34920000,87.6952031333,98.7938257384,82.1458918308,0.755,0.167,0.59,0.017,0.16,0.177,0.108035714286,0.017,0.16,0.177,0.108035714286,0.017,0.16,0.177,0.108035714286,0.017,0.16,0.177,0.108035714286,0.017,0.16,0.177,0.108035714286,0.017,0.16,0.177,0.108035714286
34920000,88.05441173,98.9192730043,82.6219810929,0.7745,0.1765,0.6065,0.018,0.165,0.183,0.109320175439,0.018,0.165,0.183,0.109320175439,0.018,0.165,0.183,0.109320175439,0.018,0.165,0.183,0.109320175439,0.018,0.165,0.183,0.109320175439,0.018,0.165,0.183,0.109320175439
34920000,89.7788515676,100.651237038,84.3426588326,0.7295,0.17,0.5645,0.01,0.1615,0.1715,0.0619190858161,0.01,0.1535,0.1635,0.066443972694,0.01,0.1495,0.1595,0.0676344488844,0.01,0.1495,0.1595,0.0676344488844,0.01,0.1495,0.1595,0.0676344488844,0.01,0.1495,0.1595,0.0676344488844
34920000,90.1809123671,102.577123021,83.9828070402,0.7485,0.161,0.585,0.008,0.1505,0.1585,0.0533005691312,0.008,0.1505,0.1585,0.0533005691312,0.008,0.1505,0.1585,0.0533005691312,0.008,0.1505,0.1585,0.0533005691312,0.008,0.1505,0.1585,0.0533005691312,0.008,0.1505,0.1585,0.0533005691312
34920000,91.7530232508,103.241178826,86.0089454633,0.7445,0.181,0.576,0.024,0.179,0.203,0.140178571429,0.024,0.179,0.203,0.140178571429,0.024,0.179,0.203,0.140178571429,0.024,0.179,0.203,0.140178571429,0.024,0.179,0.203,0.140178571429,0.024,0.179,0.203,0.140178571429
34920000,92.1140786926,104.873065387,85.7345853453,0.827,0.177,0.563,0.013,0.174,0.187,0.0760959818245,0.013,0.174,0.187,0.0760959818245,0.013,0.174,0.187,0.0760959818245,0.013,0.174,0.187,0.0760959818245,0.013,0.174,0.187,0.0760959818245,0.013,0.174,0.187,0.0760959818245
34920000,92.5310837065,104.301259126,86.6459959968,0.7445,0.162,0.5805,0.023,0.153,0.176,0.146987259816,0.023,0.153,0.176,0.146987259816,0.023,0.153,0.176,0.146987259816,0.023,0.153,0.176,0.146987259816,0.023,0.153,0.176,0.146987259816,0.023,0.153,0.176,0.146987259816
34920000,96.102960066,109.942981244,89.1829494769,0.7505,0.1625,0.5865,0.0285,0.159,0.1875,0.173549759816,0.0285,0.159,0.1875,0.173549759816,0.0285,0.159,0.1875,0.173549759816,0.0285,0.159,0.1875,0.173549759816,0.0285,0.159,0.1875,0.173549759816,0.0285,0.159,0.1875,0.173549759816
34960000,89.4953468432,106.789758912,80.848140809,0.751,0.177,0.5705,0.008,0.167,0.175,0.0479978354978,0.008,0.167,0.175,0.0479978354978,0.008,0.167,0.175,0.0479978354978,0.008,0.167,0.175,0.0479978354978,0.008,0.167,0.175,0.0479978354978,0.008,0.167,0.175,0.0479978354978
34960000,90.2392117449,107.273895977,81.7218696289,0.6965,0.16,0.529,0.0225,0.1555,0.178,0.148538961039,0.0225,0.1555,0.178,0.148538961039,0.0225,0.1515,0.174,0.153747294372,0.0225,0.1515,0.174,0.153747294372,0.0225,0.1515,0.174,0.153747294372,0.0185,0.1515,0.17,0.122497294372
34960000,90.7731491373,107.455244655,82.4321013785,0.6645,0.1925,0.501,0.01,0.192,0.202,0.0521401515152,0.01,0.192,0.202,0.0521401515152,0.01,0.192,0.202,0.0521401515152,0.01,0.192,0.202,0.0521401515152,0.01,0.192,0.202,0.0521401515152,0.01,0.192,0.202,0.0521401515152
34960000,91.2996826778,107.61213023,83.1434589018,0.605,0.173,0.4655,0.0095,0.1695,0.179,0.0557359307359,0.0095,0.1695,0.179,0.0557359307359,0.0095,0.1695,0.179,0.0557359307359,0.0095,0.1695,0.179,0.0557359307359,0.0095,0.1695,0.179,0.0557359307359,0.0095,0.1695,0.179,0.0557359307359
34960000,91.4249222245,111.784324724,81.2452209749,0.7725,0.2355,0.5745,0.016,0.225,0.241,0.0838442565187,0.016,0.225,0.241,0.0838442565187,0.016,0.225,0.241,0.0838442565187,0.016,0.225,0.241,0.0838442565187,0.016,0.225,0.241,0.0838442565187,0.016,0.225,0.241,0.0838442565187
34960000,92.1240239829,110.335503723,83.0182841131,0.7445,0.1745,0.5735,0.014,0.1685,0.1825,0.0844939671313,0.014,0.1685,0.1825,0.0844939671313,0.014,0.1685,0.1825,0.0844939671313,0.014,0.1685,0.1825,0.0844939671313,0.014,0.1685,0.1825,0.0844939671313,0.014,0.1685,0.1825,0.0844939671313
34960000,92.2721518745,109.139032301,83.8387116613,0.7745,0.18,0.529,0.022,0.1635,0.1855,0.125974418094,0.022,0.1635,0.1855,0.125974418094,0.022,0.1635,0.1855,0.125974418094,0.022,0.1635,0.1855,0.125974418094,0.022,0.1635,0.1855,0.125974418094,0.022,0.1635,0.1855,0.125974418094
34960000,92.3132130706,108.874588992,84.0325251097,0.638,0.1715,0.462,0.0195,0.159,0.1785,0.123928429027,0.0195,0.159,0.1785,0.123928429027,0.0195,0.159,0.1785,0.123928429027,0.0195,0.159,0.1785,0.123928429027,0.0195,0.159,0.1785,0.123928429027,0.0195,0.159,0.1785,0.123928429027
34960000,92.8041787821,108.515005932,84.948765207,0.74,0.184,0.568,0.01,0.178,0.188,0.0563711650668,0.01,0.178,0.188,0.0563711650668,0.01,0.178,0.188,0.0563711650668,0.01,0.178,0.188,0.0563711650668,0.01,0.178,0.188,0.0563711650668,0.01,0.178,0.188,0.0563711650668
34960000,93.081267851,109.049061105,85.0973712238,0.7515,0.1815,0.5725,0.009,0.169,0.178,0.053456145304,0.009,0.169,0.178,0.053456145304,0.009,0.169,0.178,0.053456145304,0.009,0.161,0.17,0.0557444748234,0.009,0.161,0.17,0.0557444748234,0.009,0.161,0.17,0.0557444748234
34960000,93.531058752,112.26212749,84.1655243829,0.7365,0.276,0.519,0.0185,0.2625,0.281,0.0718500797448,0.0185,0.2625,0.281,0.0718500797448,0.0185,0.2625,0.281,0.0718500797448,0.0185,0.2625,0.281,0.0718500797448,0.0185,0.2625,0.281,0.0718500797448,0.0185,0.2625,0.281,0.0718500797448
34960000,93.9256450218,114.967261369,83.4048368481,0.74,0.1845,0.557,0.008,0.1795,0.1875,0.0451082112687,0.008,0.1795,0.1875,0.0451082112687,0.008,0.1795,0.1875,0.0451082112687,0.008,0.1795,0.1875,0.0451082112687,0.008,0.1795,0.1875,0.0451082112687,0.008,0.1795,0.1875,0.0451082112687
34960000,94.2389536332,111.697220723,85.5098200882,0.7355,0.176,0.5625,0.011,0.1755,0.1865,0.0626352813853,0.011,0.1755,0.1865,0.0626352813853,0.011,0.1755,0.1865,0.0626352813853,0.011,0.1755,0.1865,0.0626352813853,0.011,0.1755,0.1865,0.0626352813853,0.011,0.1755,0.1865,0.0626352813853
34960000,94.8931524975,110.567500702,87.0559783955,0.704,0.17,0.527,0.014,0.167,0.181,0.0820930166325,0.014,0.167,0.181,0.0820930166325,0.014,0.167,0.181,0.0820930166325,0.014,0.167,0.181,0.0820930166325,0.014,0.167,0.181,0.0820930166325,0.014,0.167,0.181,0.0820930166325
34960000,94.9355424974,108.040783582,88.3829219553,0.7435,0.189,0.566,0.0095,0.174,0.1835,0.0546224271911,0.0095,0.174,0.1835,0.0546224271911,0.0095,0.174,0.1835,0.0546224271911,0.0095,0.174,0.1835,0.0546224271911,0.0085,0.174,0.1825,0.0512440488127,0.0085,0.174,0.1825,0.0512440488127
34960000,95.2774424979,114.804932433,85.5136975305,0.728,0.1865,0.47,0.017,0.1835,0.2005,0.0959889069264,0.017,0.1835,0.2005,0.0959889069264,0.017,0.1835,0.2005,0.0959889069264,0.017,0.1835,0.2005,0.0959889069264,0.017,0.1835,0.2005,0.0959889069264,0.017,0.1835,0.2005,0.0959889069264
34960000,96.5217476649,116.809441343,86.377900826,0.7305,0.182,0.548,0.0155,0.177,0.1925,0.0878211462451,0.0155,0.177,0.1925,0.0878211462451,0.0155,0.177,0.1925,0.0878211462451,0.0155,0.177,0.1925,0.0878211462451,0.0155,0.177,0.1925,0.0878211462451,0.0155,0.177,0.1925,0.0878211462451
34960000,98.6624300423,119.205471181,88.390909473,0.727,0.1715,0.551,0.013,0.1655,0.1785,0.0779730073848,0.013,0.1655,0.1785,0.0779730073848,0.013,0.1655,0.1785,0.0779730073848,0.013,0.1655,0.1785,0.0779730073848,0.013,0.1655,0.1785,0.0779730073848,0.013,0.1655,0.1785,0.0779730073848
34960000,99.464329722,119.328218267,89.5323854497,0.722,0.178,0.537,0.0145,0.17,0.1845,0.0882304542202,0.0145,0.17,0.1845,0.0882304542202,0.0145,0.17,0.1845,0.0882304542202,0.0145,0.17,0.1845,0.0882304542202,0.0145,0.162,0.1765,0.0944224046846,0.0145,0.162,0.1765,0.0944224046846
35000000,97.9808612706,119.526586261,87.2079987753,0.6785,0.172,0.5205,0.0215,0.1645,0.186,0.132886904762,0.0215,0.1645,0.186,0.132886904762,0.0215,0.1645,0.186,0.132886904762,0.0215,0.1645,0.186,0.132886904762,0.0215,0.1645,0.186,0.132886904762,0.0215,0.1645,0.186,0.132886904762
35000000,100.126475364,122.933003508,88.7232112926,0.6665,0.171,0.501,0.0115,0.1605,0.172,0.0710159632035,0.0115,0.1605,0.172,0.0710159632035,0.0115,0.1605,0.172,0.0710159632035,0.0115,0.1605,0.172,0.0710159632035,0.0115,0.1605,0.172,0.0710159632035,0.0115,0.1605,0.172,0.0710159632035
35000000,103.125377434,123.984484613,92.6958238449,0.6745,0.177,0.5045,0.018,0.1715,0.1895,0.108536691803,0.018,0.1715,0.1895,0.108536691803,0.018,0.1715,0.1895,0.108536691803,0.018,0.1715,0.1895,0.108536691803,0.018,0.1715,0.1895,0.108536691803,0.018,0.1715,0.1895,0.108536691803
35000000,104.217514717,126.605651042,93.0234465546,0.6795,0.1675,0.5105,0.014,0.1645,0.1785,0.086205570745,0.014,0.1645,0.1785,0.086205570745,0.014,0.1645,0.1785,0.086205570745,0.014,0.1645,0.1785,0.086205570745,0.014,0.1645,0.1785,0.086205570745,0.014,0.1645,0.1785,0.086205570745
35000000,104.860525354,128.529313298,93.0261313819,0.664,0.168,0.496,0.016,0.168,0.184,0.0952380952381,0.016,0.168,0.184,0.0952380952381,0.016,0.168,0.184,0.0952380952381,0.016,0.168,0.184,0.0952380952381,0.016,0.168,0.184,0.0952380952381,0.016,0.168,0.184,0.0952380952381
35040000,86.5108203663,128.181926466,65.6752673166,0.752,0.266,0.382,0.008,0.256,0.264,0.0354915433404,0.008,0.256,0.264,0.0354915433404,0.008,0.256,0.264,0.0354915433404,0.008,0.256,0.264,0.0354915433404,0.008,0.256,0.264,0.0354915433404,0.008,0.256,0.264,0.0354915433404
35080000,88.0444606149,136.84297632,63.6452027625,0.79,0.314,0.536,0.012,0.312,0.324,0.0466600711965,0.012,0.312,0.324,0.0466600711965,0.012,0.312,0.324,0.0466600711965,0.012,0.312,0.324,0.0466600711965,0.012,0.312,0.324,0.0466600711965,0.012,0.308,0.32,0.0476070408935
35080000,88.3660262405,136.922234307,64.087922207,0.7735,0.186,0.5885,0.0165,0.186,0.2025,0.0892391304348,0.0165,0.185,0.2015,0.0897567287785,0.0165,0.185,0.2015,0.0897567287785,0.0165,0.185,0.2015,0.0897567287785,0.0165,0.185,0.2015,0.0897567287785,0.0165,0.185,0.2015,0.0897567287785
35080000,90.1507406109,140.182814662,65.1347035852,0.777,0.1935,0.5845,0.0115,0.19,0.2015,0.0603431372549,0.0115,0.19,0.2015,0.0603431372549,0.0115,0.19,0.2015,0.0603431372549,0.0115,0.19,0.2015,0.0603431372549,0.0115,0.19,0.2015,0.0603431372549,0.0115,0.19,0.2015,0.0603431372549
35080000,91.2230062164,139.834099904,66.9174593725,0.757,0.1945,0.5635,0.018,0.1905,0.2085,0.0973061358931,0.018,0.1885,0.2065,0.0977590344438,0.018,0.1885,0.2065,0.0977590344438,0.018,0.1885,0.2065,0.0977590344438,0.018,0.1885,0.2065,0.0977590344438,0.018,0.1885,0.2065,0.0977590344438
35120000,84.3833019659,131.197488926,60.9762084861,0.79,0.2,0.5935,0.0295,0.189,0.2185,0.157382246377,0.0295,0.189,0.2185,0.157382246377,0.0295,0.189,0.2185,0.157382246377,0.0295,0.189,0.2185,0.157382246377,0.0295,0.189,0.2185,0.157382246377,0.0295,0.189,0.2185,0.157382246377
35120000,85.1593166409,132.373887952,61.5520309852,0.7845,0.194,0.587,0.012,0.182,0.194,0.0650388198758,0.012,0.182,0.194,0.0650388198758,0.012,0.182,0.194,0.0650388198758,0.012,0.178,0.19,0.0668504140787,0.012,0.178,0.19,0.0668504140787,0.012,0.178,0.19,0.0668504140787
35120000,86.8200938876,134.451435395,63.0044231341,0.791,0.197,0.596,0.009,0.1735,0.1825,0.052537055336,0.009,0.1735,0.1825,0.052537055336,0.009,0.1735,0.1825,0.052537055336,0.009,0.1735,0.1825,0.052537055336,0.009,0.1735,0.1825,0.052537055336,0.009,0.1735,0.1825,0.052537055336
35120000,88.3783707818,136.774298921,64.1804067121,0.7705,0.1935,0.5815,0.008,0.1835,0.1915,0.0439186507937,0.008,0.1835,0.1915,0.0439186507937,0.008,0.1835,0.1915,0.0439186507937,0.008,0.1835,0.1915,0.0439186507937,0.008,0.1835,0.1915,0.0439186507937,0.008,0.1835,0.1915,0.0439186507937
35120000,88.454723913,135.638179411,64.8629961638,0.759,0.192,0.5575,0.0125,0.1815,0.194,0.0677510537708,0.0125,0.1815,0.194,0.0677510537708,0.0125,0.1815,0.194,0.0677510537708,0.0125,0.1815,0.194,0.0677510537708,0.0125,0.1815,0.194,0.0677510537708,0.0125,0.1815,0.194,0.0677510537708
35120000,88.9445907044,137.061462227,64.8861549431,0.7865,0.188,0.5965,0.013,0.1645,0.1775,0.0807274640405,0.013,0.1645,0.1775,0.0807274640405,0.013,0.1645,0.1775,0.0807274640405,0.013,0.1645,0.1775,0.0807274640405,0.012,0.1645,0.1765,0.0752926814318,0.012,0.1645,0.1765,0.0752926814318
35120000,89.2150981121,137.114624934,65.2653347014,0.775,0.1915,0.585,0.009,0.1685,0.1775,0.0535914266893,0.009,0.1685,0.1775,0.0535914266893,0.009,0.1685,0.1775,0.0535914266893,0.009,0.1685,0.1775,0.0535914266893,0.009,0.1685,0.1775,0.0535914266893,0.009,0.1685,0.1775,0.0535914266893
35120000,89.2224542211,137.665690949,65.0008358573,0.766,0.1945,0.5765,0.017,0.165,0.182,0.108705822527,0.017,0.165,0.182,0.108705822527,0.017,0.165,0.182,0.108705822527,0.017,0.165,0.182,0.108705822527,0.017,0.165,0.182,0.108705822527,0.017,0.165,0.182,0.108705822527
35120000,89.3936653915,139.631659478,64.2746683482,0.7705,0.194,0.5775,0.016,0.1925,0.2085,0.0828499670619,0.016,0.1925,0.2085,0.0828499670619,0.016,0.1925,0.2085,0.0828499670619,0.016,0.1925,0.2085,0.0828499670619,0.016,0.1925,0.2085,0.0828499670619,0.016,0.1925,0.2085,0.0828499670619
35120000,89.4347705715,138.812861902,64.7457249064,0.7825,0.1955,0.5895,0.0255,0.1925,0.218,0.133057065217,0.0255,0.1925,0.218,0.133057065217,0.0255,0.1925,0.218,0.133057065217,0.0255,0.1925,0.218,0.133057065217,0.0255,0.1925,0.218,0.133057065217,0.0255,0.1925,0.218,0.133057065217
35120000,89.9561226384,139.782857382,65.0427552665,0.792,0.191,0.6005,0.0215,0.1765,0.198,0.122691393751,0.0215,0.1765,0.198,0.122691393751,0.0215,0.1765,0.198,0.122691393751,0.0215,0.1765,0.198,0.122691393751,0.0215,0.1765,0.198,0.122691393751,0.0215,0.1765,0.198,0.122691393751
35120000,90.1214658285,137.859735322,66.2523310819,0.7675,0.1895,0.582,0.009,0.1855,0.1945,0.0492242494824,0.009,0.1855,0.1945,0.0492242494824,0.009,0.1855,0.1945,0.0492242494824,0.009,0.1855,0.1945,0.0492242494824,0.009,0.1855,0.1945,0.0492242494824,0.009,0.1855,0.1945,0.0492242494824
35120000,90.1601401874,140.073590778,65.203414892,0.78,0.197,0.586,0.0125,0.19,0.2025,0.0655673583663,0.0125,0.19,0.2025,0.0655673583663,0.0125,0.19,0.2025,0.0655673583663,0.0125,0.19,0.2025,0.0655673583663,0.0125,0.19,0.2025,0.0655673583663,0.0125,0.19,0.2025,0.0655673583663
35120000,90.2394835452,139.069160853,65.8246448913,0.7575,0.285,0.5725,0.0145,0.265,0.2795,0.0695989214695,0.0145,0.265,0.2795,0.0695989214695,0.0145,0.265,0.2795,0.0695989214695,0.0145,0.265,0.2795,0.0695989214695,0.0145,0.265,0.2795,0.0695989214695,0.0145,0.265,0.2795,0.0695989214695
35120000,90.4024661036,139.489087697,65.8591553071,0.7435,0.19,0.5485,0.009,0.187,0.196,0.0482542819499,0.009,0.187,0.196,0.0482542819499,0.009,0.187,0.196,0.0482542819499,0.009,0.187,0.196,0.0482542819499,0.009,0.187,0.196,0.0482542819499,0.009,0.187,0.196,0.0482542819499
35120000,90.4431060149,140.665086945,65.3321155501,0.775,0.1915,0.5895,0.012,0.185,0.197,0.0663699494949,0.012,0.177,0.189,0.0681090799297,0.012,0.177,0.189,0.0681090799297,0.012,0.177,0.189,0.0681090799297,0.012,0.177,0.189,0.0681090799297,0.012,0.177,0.189,0.0681090799297
35120000,90.7392694162,139.983332218,66.1172380152,0.7595,0.2005,0.5645,0.018,0.1865,0.2045,0.0985023310023,0.018,0.1865,0.2045,0.0985023310023,0.018,0.1865,0.2045,0.0985023310023,0.018,0.1865,0.2045,0.0985023310023,0.018,0.1865,0.2045,0.0985023310023,0.018,0.1865,0.2045,0.0985023310023
35120000,90.8151829257,139.477143714,66.4842025315,0.763,0.194,0.568,0.013,0.19,0.203,0.0681612318841,0.013,0.19,0.203,0.0681612318841,0.013,0.19,0.203,0.0681612318841,0.013,0.19,0.203,0.0681612318841,0.013,0.19,0.203,0.0681612318841,0.013,0.19,0.203,0.0681612318841
35120000,90.9041689738,141.041885668,65.8353106266,0.7845,0.196,0.586,0.0265,0.194,0.2205,0.135274621212,0.0265,0.194,0.2205,0.135274621212,0.0265,0.194,0.2205,0.135274621212,0.0265,0.194,0.2205,0.135274621212,0.0265,0.194,0.2205,0.135274621212,0.0265,0.194,0.2205,0.135274621212
35120000,90.9633341316,140.842158849,66.023921773,0.7645,0.1925,0.5695,0.0205,0.181,0.2015,0.111685606061,0.0205,0.181,0.2015,0.111685606061,0.0205,0.181,0.2015,0.111685606061,0.0205,0.181,0.2015,0.111685606061,0.0205,0.181,0.2015,0.111685606061,0.0205,0.181,0.2015,0.111685606061
35120000,90.9972716768,141.221217955,65.8852985378,0.7865,0.239,0.593,0.03,0.2225,0.2525,0.128046045493,0.03,0.2225,0.2525,0.128046045493,0.03,0.2225,0.2525,0.128046045493,0.03,0.2225,0.2525,0.128046045493,0.03,0.2225,0.2525,0.128046045493,0.03,0.2185,0.2485,0.129434934382
35120000,91.4834181664,141.909386132,66.2704341836,0.7755,0.1805,0.5915,0.016,0.168,0.184,0.0944228778468,0.016,0.168,0.184,0.0944228778468,0.016,0.168,0.184,0.0944228778468,0.016,0.168,0.184,0.0944228778468,0.016,0.168,0.184,0.0944228778468,0.016,0.168,0.184,0.0944228778468
35120000,91.572309531,143.364165966,65.6763813137,0.79,0.1845,0.6135,0.01,0.173,0.183,0.0574063617542,0.01,0.173,0.183,0.0574063617542,0.01,0.173,0.183,0.0574063617542,0.01,0.173,0.183,0.0574063617542,0.01,0.173,0.183,0.0574063617542,0.01,0.173,0.183,0.0574063617542
35120000,91.7851085392,142.26794922,66.5436881989,0.79,0.2925,0.5325,0.015,0.29,0.305,0.07122959446,0.015,0.29,0.305,0.07122959446,0.009,0.29,0.299,0.0371386853691,0.009,0.29,0.299,0.0371386853691,0.009,0.29,0.299,0.0371386853691,0.009,0.29,0.299,0.0371386853691
35120000,91.8241726529,146.464080248,64.5042188554,0.8285,0.1645,0.6505,0.028,0.1625,0.1905,0.18880599473,0.028,0.1625,0.1905,0.18880599473,0.028,0.1625,0.1905,0.18880599473,0.028,0.1625,0.1905,0.18880599473,0.028,0.1625,0.1905,0.18880599473,0.028,0.1625,0.1905,0.18880599473
35120000,92.9010297717,143.826240997,67.4384241591,0.755,0.192,0.5615,0.012,0.1895,0.2015,0.062573522492,0.012,0.1895,0.2015,0.062573522492,0.012,0.1895,0.2015,0.062573522492,0.012,0.1895,0.2015,0.062573522492,0.012,0.1895,0.2015,0.062573522492,0.012,0.1895,0.2015,0.062573522492
35120000,92.9748300695,143.960405745,67.4820422319,0.775,0.183,0.521,0.0225,0.183,0.2055,0.122919517077,0.0225,0.183,0.2055,0.122919517077,0.0225,0.183,0.2055,0.122919517077,0.0225,0.183,0.2055,0.122919517077,0.0225,0.183,0.2055,0.122919517077,0.0225,0.183,0.2055,0.122919517077
35120000,93.0958881942,144.196109045,67.5457777688,0.765,0.2265,0.5605,0.01,0.217,0.227,0.0548468137255,0.01,0.217,0.227,0.0548468137255,0.01,0.217,0.227,0.0548468137255,0.01,0.217,0.227,0.0548468137255,0.01,0.217,0.227,0.0548468137255,0.01,0.217,0.227,0.0548468137255
35120000,93.100699167,142.651525643,68.325285929,0.754,0.19,0.575,0.022,0.1845,0.2065,0.119451992754,0.022,0.1845,0.2065,0.119451992754,0.022,0.1845,0.2065,0.119451992754,0.022,0.1845,0.2065,0.119451992754,0.022,0.1845,0.2065,0.119451992754,0.022,0.1845,0.2065,0.119451992754
35120000,93.1810517858,144.170170424,67.6864924667,0.7485,0.18,0.571,0.014,0.1705,0.1845,0.0821955766392,0.014,0.1705,0.1845,0.0821955766392,0.014,0.1705,0.1845,0.0821955766392,0.014,0.1705,0.1845,0.0821955766392,0.014,0.1585,0.1725,0.0901320845757,0.014,0.1585,0.1725,0.0901320845757
35120000,93.3395926925,146.060663016,66.9790575309,0.7915,0.183,0.608,0.02,0.1785,0.1985,0.111613334225,0.02,0.1785,0.1985,0.111613334225,0.02,0.1785,0.1985,0.111613334225,0.02,0.1785,0.1985,0.111613334225,0.02,0.1785,0.1985,0.111613334225,0.02,0.1785,0.1985,0.111613334225
35120000,93.3402646223,139.909151291,70.0558212877,0.6975,0.194,0.5125,0.022,0.191,0.213,0.116097661397,0.022,0.191,0.213,0.116097661397,0.022,0.191,0.213,0.116097661397,0.022,0.191,0.213,0.116097661397,0.022,0.191,0.213,0.116097661397,0.016,0.191,0.207,0.0820067523057
35120000,93.3749850474,142.608854778,68.7580501821,0.755,0.1905,0.569,0.0135,0.1825,0.196,0.0745532773386,0.0135,0.1825,0.196,0.0745532773386,0.0135,0.1825,0.196,0.0745532773386,0.0135,0.1825,0.196,0.0745532773386,0.0135,0.1825,0.196,0.0745532773386,0.0135,0.1825,0.196,0.0745532773386
35120000,93.4617327328,144.59799517,67.8936015141,0.765,0.189,0.574,0.0155,0.184,0.1995,0.0841773715415,0.0155,0.184,0.1995,0.0841773715415,0.0155,0.184,0.1995,0.0841773715415,0.0155,0.184,0.1995,0.0841773715415,0.0155,0.184,0.1995,0.0841773715415,0.0155,0.184,0.1995,0.0841773715415
35120000,93.7985472177,146.060432264,67.6676046945,0.7715,0.1885,0.5905,0.014,0.1825,0.1965,0.0766946640316,0.014,0.1825,0.1965,0.0766946640316,0.014,0.1825,0.1965,0.0766946640316,0.014,0.1815,0.1955,0.0775063523433,0.014,0.1815,0.1955,0.0775063523433,0.014,0.1815,0.1955,0.0775063523433
35120000,93.8301867431,146.029202564,67.7306788325,0.7585,0.2095,0.566,0.021,0.2065,0.2275,0.111354813665,0.021,0.2065,0.2275,0.111354813665,0.021,0.2065,0.2275,0.111354813665,0.021,0.2065,0.2275,0.111354813665,0.021,0.2065,0.2275,0.111354813665,0.021,0.2065,0.2275,0.111354813665
35120000,93.9478299308,145.415748309,68.2138707416,0.725,0.1805,0.5475,0.012,0.1775,0.1895,0.0669816370224,0.012,0.1775,0.1895,0.0669816370224,0.012,0.1775,0.1895,0.0669816370224,0.012,0.1765,0.1885,0.067252199793,0.012,0.1765,0.1885,0.067252199793,0.012,0.1765,0.1885,0.067252199793
35120000,94.0747825638,146.450615853,67.886865919,0.7975,0.175,0.619,0.0295,0.1555,0.185,0.202725625823,0.0295,0.1555,0.185,0.202725625823,0.0295,0.1555,0.185,0.202725625823,0.0295,0.1555,0.185,0.202725625823,0.0295,0.1555,0.185,0.202725625823,0.0295,0.1555,0.185,0.202725625823
35120000,94.3870355766,146.386649944,68.387228393,0.7495,0.1925,0.5635,0.022,0.1885,0.2105,0.115416666667,0.022,0.1885,0.2105,0.115416666667,0.022,0.1885,0.2105,0.115416666667,0.022,0.1885,0.2105,0.115416666667,0.022,0.1865,0.2085,0.116111111111,0.022,0.1865,0.2085,0.116111111111
35120000,94.5770381808,146.086508138,68.8223032022,0.761,0.1925,0.5765,0.0175,0.1885,0.206,0.0941456641185,0.0175,0.1885,0.206,0.0941456641185,0.0175,0.1885,0.206,0.0941456641185,0.0175,0.1885,0.206,0.0941456641185,0.0175,0.1885,0.206,0.0941456641185,0.0175,0.1885,0.206,0.0941456641185
35120000,95.1452548457,147.031473759,69.2021453891,0.7635,0.179,0.578,0.008,0.175,0.183,0.0457486354225,0.008,0.175,0.183,0.0457486354225,0.008,0.175,0.183,0.0457486354225,0.008,0.175,0.183,0.0457486354225,0.008,0.175,0.183,0.0457486354225,0.008,0.175,0.183,0.0457486354225
35120000,95.2862685148,147.035882901,69.4114613217,0.7555,0.1855,0.5705,0.027,0.181,0.208,0.147727272727,0.027,0.181,0.208,0.147727272727,0.027,0.181,0.208,0.147727272727,0.027,0.181,0.208,0.147727272727,0.027,0.181,0.208,0.147727272727,0.027,0.181,0.208,0.147727272727
35120000,95.4148195206,146.601199572,69.8216294951,0.756,0.18,0.548,0.016,0.176,0.192,0.0909090909091,0.016,0.176,0.192,0.0909090909091,0.012,0.176,0.188,0.0681818181818,0.012,0.176,0.188,0.0681818181818,0.012,0.164,0.176,0.0717703349282,0.012,0.164,0.176,0.0717703349282
35120000,95.5757473869,148.105063577,69.3110892918,0.7275,0.189,0.533,0.0505,0.184,0.2345,0.268483709273,0.0505,0.184,0.2345,0.268483709273,0.0505,0.184,0.2345,0.268483709273,0.0505,0.184,0.2345,0.268483709273,0.049,0.184,0.233,0.259555137845,0.049,0.184,0.233,0.259555137845
35120000,95.5949421579,148.370693155,69.2070666593,0.7675,0.1795,0.581,0.0095,0.179,0.1885,0.0529891304348,0.0095,0.179,0.1885,0.0529891304348,0.0095,0.179,0.1885,0.0529891304348,0.0095,0.179,0.1885,0.0529891304348,0.0095,0.179,0.1885,0.0529891304348,0.0095,0.179,0.1885,0.0529891304348
35120000,95.6352855748,148.659344657,69.1232560335,0.7485,0.191,0.5515,0.0085,0.1895,0.198,0.0447418478261,0.0085,0.1895,0.198,0.0447418478261,0.0085,0.1895,0.198,0.0447418478261,0.0085,0.1895,0.198,0.0447418478261,0.0085,0.189,0.1975,0.0448550724638,0.0085,0.189,0.1975,0.0448550724638
35120000,96.1415979599,146.756132224,70.834330828,0.757,0.182,0.5745,0.0145,0.1795,0.194,0.0802865612648,0.0145,0.1795,0.194,0.0802865612648,0.0145,0.1795,0.194,0.0802865612648,0.0145,0.1795,0.194,0.0802865612648,0.0145,0.1795,0.194,0.0802865612648,0.0145,0.1795,0.194,0.0802865612648
35120000,96.4240000215,148.739017737,70.2664911638,0.747,0.191,0.563,0.008,0.1835,0.1915,0.0437329427819,0.008,0.1835,0.1915,0.0437329427819,0.008,0.1835,0.1915,0.0437329427819,0.008,0.1835,0.1915,0.0437329427819,0.008,0.1835,0.1915,0.0437329427819,0.008,0.1835,0.1915,0.0437329427819
35120000,96.8627403304,148.066345806,71.2609375928,0.726,0.189,0.5335,0.0095,0.1865,0.196,0.0511752025625,0.0095,0.1865,0.196,0.0511752025625,0.0095,0.1865,0.196,0.0511752025625,0.0095,0.1865,0.196,0.0511752025625,0.0095,0.1865,0.196,0.0511752025625,0.0095,0.1865,0.196,0.0511752025625
35120000,97.1160505807,149.199194472,71.074478635,0.748,0.176,0.571,0.023,0.1695,0.1925,0.134611169723,0.023,0.1695,0.1925,0.134611169723,0.023,0.1695,0.1925,0.134611169723,0.0195,0.1695,0.189,0.115589430592,0.0195,0.1695,0.189,0.115589430592,0.0195,0.1695,0.189,0.115589430592
35120000,97.1618776692,145.016969298,73.2343318547,0.6905,0.177,0.5255,0.0085,0.177,0.1855,0.0480484189723,0.0085,0.177,0.1855,0.0480484189723,0.0085,0.177,0.1855,0.0480484189723,0.0085,0.177,0.1855,0.0480484189723,0.0085,0.177,0.1855,0.0480484189723,0.0085,0.177,0.1855,0.0480484189723
35120000,97.274293767,149.925600388,70.9486404566,0.7555,0.178,0.5805,0.012,0.171,0.183,0.0688520646973,0.012,0.171,0.183,0.0688520646973,0.012,0.171,0.183,0.0688520646973,0.012,0.169,0.181,0.0695830588494,0.012,0.169,0.181,0.0695830588494,0.012,0.169,0.181,0.0695830588494
35120000,97.2797111807,148.749339265,71.5448971386,0.733,0.186,0.5435,0.0255,0.1815,0.207,0.139863306983,0.0255,0.1815,0.207,0.139863306983,0.0255,0.1815,0.207,0.139863306983,0.0255,0.1815,0.207,0.139863306983,0.0255,0.1815,0.207,0.139863306983,0.0255,0.1815,0.207,0.139863306983
35200000,88.3865916806,139.167657896,62.9960585728,0.8225,0.2055,0.6205,0.013,0.1995,0.2125,0.0667764074693,0.013,0.1995,0.2125,0.0667764074693,0.013,0.1995,0.2125,0.0667764074693,0.013,0.1995,0.2125,0.0667764074693,0.013,0.1995,0.2125,0.0667764074693,0.013,0.1995,0.2125,0.0667764074693
35200000,90.8219490521,136.777241161,67.8443029979,0.714,0.193,0.532,0.0185,0.1875,0.206,0.0988249341238,0.0185,0.1875,0.206,0.0988249341238,0.0185,0.1875,0.206,0.0988249341238,0.0185,0.1875,0.206,0.0988249341238,0.0185,0.1875,0.206,0.0988249341238,0.0185,0.1875,0.206,0.0988249341238
35200000,91.0761318462,140.038184223,66.5951056578,0.778,0.213,0.5715,0.013,0.2,0.213,0.0642912296037,0.013,0.2,0.213,0.0642912296037,0.013,0.2,0.213,0.0642912296037,0.009,0.2,0.209,0.045060460373,0.009,0.2,0.209,0.045060460373,0.009,0.2,0.209,0.045060460373
35200000,92.3664585904,141.09564579,68.0018649906,0.75,0.184,0.554,0.016,0.184,0.2,0.0879824561404,0.016,0.184,0.2,0.0879824561404,0.016,0.184,0.2,0.0879824561404,0.016,0.184,0.2,0.0879824561404,0.016,0.184,0.2,0.0879824561404,0.016,0.184,0.2,0.0879824561404
35200000,92.4145711848,140.571304415,68.3362045697,0.7615,0.2025,0.5525,0.019,0.196,0.215,0.0975,0.019,0.196,0.215,0.0975,0.019,0.196,0.215,0.0975,0.019,0.196,0.215,0.0975,0.019,0.196,0.215,0.0975,0.019,0.196,0.215,0.0975
35200000,92.6676466372,144.867576466,66.5676817226,0.797,0.1965,0.602,0.0115,0.1885,0.2,0.0615036231884,0.0115,0.1885,0.2,0.0615036231884,0.0115,0.1885,0.2,0.0615036231884,0.0115,0.1885,0.2,0.0615036231884,0.0115,0.1885,0.2,0.0615036231884,0.0115,0.1885,0.2,0.0615036231884
35200000,92.8688474141,142.285893313,68.1603244648,0.7555,0.2005,0.5575,0.01,0.196,0.206,0.0508413461538,0.01,0.196,0.206,0.0508413461538,0.01,0.195,0.205,0.0510780885781,0.01,0.195,0.205,0.0510780885781,0.01,0.195,0.205,0.0510780885781,0.01,0.195,0.205,0.0510780885781
35200000,92.9103818493,142.605919405,68.0626130714,0.754,0.2005,0.548,0.016,0.1805,0.1965,0.0844230769231,0.016,0.1805,0.1965,0.0844230769231,0.016,0.1805,0.1965,0.0844230769231,0.016,0.1805,0.1965,0.0844230769231,0.016,0.1805,0.1965,0.0844230769231,0.016,0.1805,0.1965,0.0844230769231
35200000,92.9158827152,144.229043838,67.259302154,0.7815,0.1955,0.587,0.0225,0.1885,0.211,0.119926948052,0.0225,0.1885,0.211,0.119926948052,0.0225,0.1885,0.211,0.119926948052,0.0225,0.1885,0.211,0.119926948052,0.02,0.1885,0.2085,0.106906114719,0.02,0.1885,0.2085,0.106906114719
35200000,93.2261111686,143.632036475,68.0231485151,0.762,0.1875,0.5705,0.023,0.181,0.204,0.128976096367,0.023,0.181,0.204,0.128976096367,0.023,0.181,0.204,0.128976096367,0.023,0.181,0.204,0.128976096367,0.023,0.181,0.204,0.128976096367,0.023,0.181,0.204,0.128976096367
35200000,93.3715590696,143.121001749,68.4968377298,0.749,0.2,0.545,0.013,0.192,0.205,0.0682939659978,0.013,0.192,0.205,0.0682939659978,0.013,0.192,0.205,0.0682939659978,0.013,0.192,0.205,0.0682939659978,0.013,0.192,0.205,0.0682939659978,0.013,0.192,0.205,0.0682939659978
35200000,93.4030133149,143.42882275,68.3901085976,0.7495,0.1975,0.551,0.0155,0.1955,0.211,0.0794070512821,0.0155,0.1955,0.211,0.0794070512821,0.0155,0.1955,0.211,0.0794070512821,0.0155,0.1955,0.211,0.0794070512821,0.0155,0.1955,0.211,0.0794070512821,0.0155,0.1955,0.211,0.0794070512821
35200000,93.4959728005,146.110031214,67.188943594,0.8065,0.19,0.6045,0.016,0.189,0.205,0.0838949275362,0.016,0.189,0.205,0.0838949275362,0.016,0.189,0.205,0.0838949275362,0.016,0.189,0.205,0.0838949275362,0.016,0.189,0.205,0.0838949275362,0.016,0.189,0.205,0.0838949275362
35200000,93.5430792581,144.016979583,68.3061290956,0.776,0.205,0.5735,0.022,0.1995,0.2215,0.112113801054,0.022,0.1995,0.2215,0.112113801054,0.022,0.1995,0.2215,0.112113801054,0.018,0.1995,0.2175,0.0903746706192,0.018,0.1995,0.2175,0.0903746706192,0.018,0.1995,0.2175,0.0903746706192
35200000,94.0371895679,143.557092693,69.2772380056,0.747,0.1975,0.551,0.022,0.196,0.218,0.111955128205,0.022,0.196,0.218,0.111955128205,0.022,0.196,0.218,0.111955128205,0.022,0.196,0.218,0.111955128205,0.022,0.196,0.218,0.111955128205,0.022,0.196,0.218,0.111955128205
35200000,94.3275168747,144.520313682,69.2311184713,0.7395,0.2065,0.548,0.0235,0.1995,0.223,0.11694363155,0.0235,0.1995,0.223,0.11694363155,0.0235,0.1995,0.223,0.11694363155,0.0235,0.1995,0.223,0.11694363155,0.0235,0.1995,0.223,0.11694363155,0.0235,0.1995,0.223,0.11694363155
35200000,94.8246406857,145.785850869,69.3440355939,0.7815,0.1965,0.584,0.0095,0.188,0.1975,0.0501543338907,0.0095,0.188,0.1975,0.0501543338907,0.0095,0.188,0.1975,0.0501543338907,0.0095,0.188,0.1975,0.0501543338907,0.0095,0.188,0.1975,0.0501543338907,0.0095,0.188,0.1975,0.0501543338907
35200000,94.8334067081,145.247128802,69.6265456612,0.767,0.204,0.5725,0.0265,0.197,0.2235,0.133660714286,0.0265,0.197,0.2235,0.133660714286,0.0265,0.197,0.2235,0.133660714286,0.0265,0.197,0.2235,0.133660714286,0.0265,0.197,0.2235,0.133660714286,0.0265,0.197,0.2235,0.133660714286
35200000,95.0856759143,145.461215938,69.8979059023,0.77,0.203,0.5625,0.0145,0.1965,0.211,0.0774610805861,0.0145,0.1965,0.211,0.0774610805861,0.0145,0.1965,0.211,0.0774610805861,0.0145,0.1965,0.211,0.0774610805861,0.0125,0.1965,0.209,0.0674610805861,0.0125,0.1965,0.209,0.0674610805861
35200000,95.1132512199,145.429343218,69.9552052209,0.7715,0.201,0.5755,0.011,0.1985,0.2095,0.0556211677815,0.011,0.1985,0.2095,0.0556211677815,0.011,0.1985,0.2095,0.0556211677815,0.011,0.1985,0.2095,0.0556211677815,0.011,0.1985,0.2095,0.0556211677815,0.011,0.1985,0.2095,0.0556211677815
35200000,95.1854057025,146.595980763,69.4801181721,0.7695,0.254,0.563,0.009,0.2365,0.2455,0.0418417874396,0.009,0.2365,0.2455,0.0418417874396,0.009,0.2365,0.2455,0.0418417874396,0.009,0.2365,0.2455,0.0418417874396,0.009,0.2365,0.2455,0.0418417874396,0.009,0.2365,0.2455,0.0418417874396
35200000,95.2680904288,147.032935781,69.3856677526,0.7745,0.2515,0.5735,0.0085,0.237,0.2455,0.0429493689489,0.0085,0.237,0.2455,0.0429493689489,0.0085,0.237,0.2455,0.0429493689489,0.0085,0.237,0.2455,0.0429493689489,0.0085,0.237,0.2455,0.0429493689489,0.0085,0.237,0.2455,0.0429493689489
35200000,95.6269639491,146.141054987,70.3699184301,0.7575,0.1975,0.558,0.0215,0.1975,0.219,0.1096875,0.0215,0.1975,0.219,0.1096875,0.0215,0.1975,0.219,0.1096875,0.0215,0.1975,0.219,0.1096875,0.0195,0.1975,0.217,0.0992708333333,0.0195,0.1975,0.217,0.0992708333333
35200000,95.764112873,146.90484446,70.1937470797,0.768,0.2635,0.57,0.009,0.251,0.26,0.0415499194847,0.009,0.251,0.26,0.0415499194847,0.009,0.251,0.26,0.0415499194847,0.009,0.251,0.26,0.0415499194847,0.009,0.251,0.26,0.0415499194847,0.009,0.251,0.26,0.0415499194847
35200000,96.3249738229,146.200300366,71.387310551,0.743,0.188,0.5565,0.0215,0.1785,0.2,0.123017304254,0.0215,0.1785,0.2,0.123017304254,0.0215,0.1785,0.2,0.123017304254,0.0215,0.1785,0.2,0.123017304254,0.0215,0.1785,0.2,0.123017304254,0.0215,0.1785,0.2,0.123017304254
35200000,96.4910369407,146.73390877,71.3696010259,0.7515,0.1945,0.555,0.026,0.1865,0.2125,0.138768115942,0.026,0.1865,0.2125,0.138768115942,0.026,0.1865,0.2125,0.138768115942,0.026,0.1865,0.2125,0.138768115942,0.026,0.1865,0.2125,0.138768115942,0.026,0.1865,0.2125,0.138768115942
35200000,96.5445206867,148.64297863,70.4952917149,0.792,0.1955,0.5865,0.0125,0.1885,0.201,0.0666647256729,0.0125,0.1885,0.201,0.0666647256729,0.0125,0.1885,0.201,0.0666647256729,0.0125,0.1885,0.201,0.0666647256729,0.0125,0.1885,0.201,0.0666647256729,0.0125,0.1885,0.201,0.0666647256729
35200000,96.6620532452,148.247596663,70.8692815361,0.7605,0.205,0.558,0.017,0.19,0.207,0.0882767956681,0.017,0.19,0.207,0.0882767956681,0.017,0.19,0.207,0.0882767956681,0.017,0.19,0.207,0.0882767956681,0.017,0.19,0.207,0.0882767956681,0.017,0.19,0.207,0.0882767956681
35200000,97.2480321532,148.684287297,71.5299045812,0.7265,0.193,0.532,0.0125,0.1825,0.195,0.0685688405797,0.0125,0.1825,0.195,0.0685688405797,0.0125,0.1825,0.195,0.0685688405797,0.0125,0.1825,0.195,0.0685688405797,0.0125,0.1825,0.195,0.0685688405797,0.0125,0.1825,0.195,0.0685688405797
35200000,97.2935269662,148.613014434,71.6337832323,0.752,0.1985,0.5445,0.013,0.1935,0.2065,0.0674048913043,0.013,0.1935,0.2065,0.0674048913043,0.013,0.1935,0.2065,0.0674048913043,0.013,0.1935,0.2065,0.0674048913043,0.013,0.1935,0.2065,0.0674048913043,0.013,0.1935,0.2065,0.0674048913043
35200000,97.3410128459,148.703811159,71.6596136895,0.741,0.2065,0.5465,0.0105,0.184,0.1945,0.0563869463869,0.0105,0.184,0.1945,0.0563869463869,0.0105,0.184,0.1945,0.0563869463869,0.0105,0.184,0.1945,0.0563869463869,0.0105,0.184,0.1945,0.0563869463869,0.0105,0.184,0.1945,0.0563869463869
35200000,97.4160537996,148.993667117,71.6272471408,0.75,0.192,0.557,0.0095,0.1895,0.199,0.0498487020226,0.0095,0.1895,0.199,0.0498487020226,0.0095,0.1895,0.199,0.0498487020226,0.0095,0.1895,0.199,0.0498487020226,0.0095,0.1895,0.199,0.0498487020226,0.0095,0.1895,0.199,0.0498487020226
35200000,97.5780544448,145.788783193,73.4726900704,0.697,0.204,0.5,0.019,0.1975,0.2165,0.0959737318841,0.019,0.1975,0.2165,0.0959737318841,0.019,0.1975,0.2165,0.0959737318841,0.019,0.1975,0.2165,0.0959737318841,0.019,0.1975,0.2165,0.0959737318841,0.019,0.1975,0.2165,0.0959737318841
35200000,98.2279568419,149.761772453,72.4610490364,0.7245,0.199,0.533,0.0215,0.195,0.2165,0.114244627152,0.0215,0.195,0.2165,0.114244627152,0.0215,0.195,0.2165,0.114244627152,0.0215,0.195,0.2165,0.114244627152,0.0215,0.195,0.2165,0.114244627152,0.0215,0.195,0.2165,0.114244627152
35200000,98.6146797535,149.510125429,73.1669569155,0.7345,0.193,0.5375,0.012,0.1835,0.1955,0.0645071640316,0.012,0.1835,0.1955,0.0645071640316,0.012,0.1835,0.1955,0.0645071640316,0.012,0.1835,0.1955,0.0645071640316,0.012,0.1835,0.1955,0.0645071640316,0.012,0.1835,0.1955,0.0645071640316
