ID,mbp,sbp,dbp,cp,sut,dt,dt10,st10,st10_p_dt10,st10_d_dt10,dt25,st25,st25_p_dt25,st25_d_dt25,dt33,st33,st33_p_dt33,st33_d_dt33,dt50,st50,st50_p_dt50,st50_d_dt50,dt66,st66,st66_p_dt66,st66_d_dt66,dt75,st75,st75_p_dt75,st75_d_dt75
34040000,93.2826775347,126.223057411,76.8124875966,0.671,0.224,0.4645,0.012,0.2215,0.2335,0.0579382639463,0.012,0.2215,0.2335,0.0579382639463,0.012,0.2215,0.2335,0.0579382639463,0.012,0.2215,0.2335,0.0579382639463,0.012,0.2215,0.2335,0.0579382639463,0.012,0.2215,0.2335,0.0579382639463
34040000,94.3737483501,131.158379973,75.9814325389,0.7495,0.2045,0.547,0.015,0.2005,0.2155,0.0746720127698,0.015,0.2005,0.2155,0.0746720127698,0.015,0.2005,0.2155,0.0746720127698,0.015,0.2005,0.2155,0.0746720127698,0.015,0.2005,0.2155,0.0746720127698,0.015,0.2005,0.2155,0.0746720127698
34040000,95.2105065971,133.426182104,76.1026688437,0.7875,0.2455,0.558,0.014,0.241,0.255,0.0640508340161,0.014,0.241,0.255,0.0640508340161,0.014,0.241,0.255,0.0640508340161,0.014,0.241,0.255,0.0640508340161,0.014,0.241,0.255,0.0640508340161,0.014,0.241,0.255,0.0640508340161
34040000,95.9959901165,134.188699691,76.8996353291,0.746,0.199,0.5365,0.0135,0.198,0.2115,0.0672222222222,0.0135,0.198,0.2115,0.0672222222222,0.0135,0.198,0.2115,0.0672222222222,0.0135,0.198,0.2115,0.0672222222222,0.0135,0.198,0.2115,0.0672222222222,0.0135,0.198,0.2115,0.0672222222222
34040000,96.0176763679,134.1105308,76.9712491517,0.7585,0.201,0.554,0.012,0.1995,0.2115,0.0596643518519,0.012,0.1995,0.2115,0.0596643518519,0.012,0.1995,0.2115,0.0596643518519,0.012,0.1995,0.2115,0.0596643518519,0.012,0.1995,0.2115,0.0596643518519,0.012,0.1995,0.2115,0.0596643518519
34040000,96.5160453056,133.635367557,77.9563841799,0.7665,0.2,0.4825,0.016,0.198,0.214,0.0814845571096,0.016,0.198,0.214,0.0814845571096,0.016,0.198,0.214,0.0814845571096,0.016,0.198,0.214,0.0814845571096,0.016,0.198,0.214,0.0814845571096,0.016,0.198,0.214,0.0814845571096
34040000,97.0222410131,136.2136236,77.4265497197,0.748,0.276,0.468,0.012,0.26,0.272,0.0512820512821,0.012,0.256,0.268,0.0516194331984,0.012,0.256,0.268,0.0516194331984,0.012,0.256,0.268,0.0516194331984,0.012,0.256,0.268,0.0516194331984,0.012,0.256,0.268,0.0516194331984
34040000,97.1441413092,135.938375982,77.7470239729,0.796,0.209,0.598,0.012,0.197,0.209,0.0606330128205,0.012,0.197,0.209,0.0606330128205,0.012,0.197,0.209,0.0606330128205,0.012,0.197,0.209,0.0606330128205,0.012,0.197,0.209,0.0606330128205,0.012,0.197,0.209,0.0606330128205
34040000,97.1944115935,136.738220939,77.4225069206,0.7355,0.205,0.537,0.01,0.1995,0.2095,0.0504671717172,0.01,0.1995,0.2095,0.0504671717172,0.01,0.1995,0.2095,0.0504671717172,0.01,0.1995,0.2095,0.0504671717172,0.01,0.1995,0.2095,0.0504671717172,0.01,0.1995,0.2095,0.0504671717172
34040000,97.2346994363,136.462336397,77.6208809559,0.76,0.198,0.4965,0.018,0.19,0.208,0.0939590301003,0.0175,0.19,0.2075,0.0915551839465,0.0175,0.19,0.2075,0.0915551839465,0.0175,0.19,0.2075,0.0915551839465,0.0175,0.19,0.2075,0.0915551839465,0.0175,0.19,0.2075,0.0915551839465
34040000,97.3900099662,137.411908763,77.379060568,0.751,0.291,0.5045,0.008,0.2835,0.2915,0.0297744870306,0.008,0.2835,0.2915,0.0297744870306,0.008,0.2835,0.2915,0.0297744870306,0.008,0.2835,0.2915,0.0297744870306,0.008,0.2835,0.2915,0.0297744870306,0.008,0.2835,0.2915,0.0297744870306
34040000,97.6138490107,134.67897237,79.0812873309,0.7465,0.308,0.4515,0.011,0.2945,0.3055,0.0415432926748,0.011,0.2945,0.3055,0.0415432926748,0.011,0.2945,0.3055,0.0415432926748,0.011,0.2945,0.3055,0.0415432926748,0.011,0.2945,0.3055,0.0415432926748,0.011,0.2945,0.3055,0.0415432926748
34040000,97.656694101,136.416036783,78.2770227599,0.7465,0.2195,0.547,0.009,0.216,0.225,0.0421976750102,0.009,0.216,0.225,0.0421976750102,0.009,0.216,0.225,0.0421976750102,0.009,0.216,0.225,0.0421976750102,0.009,0.216,0.225,0.0421976750102,0.009,0.216,0.225,0.0421976750102
34040000,97.739004928,136.018715285,78.5991497493,0.731,0.193,0.5375,0.0155,0.1875,0.203,0.08417243083,0.0155,0.1875,0.203,0.08417243083,0.0155,0.1875,0.203,0.08417243083,0.0155,0.1875,0.203,0.08417243083,0.0155,0.1875,0.203,0.08417243083,0.0155,0.1875,0.203,0.08417243083
34040000,98.0740454481,137.360391413,78.4308724658,0.7535,0.264,0.5345,0.016,0.255,0.271,0.0726023391813,0.016,0.255,0.271,0.0726023391813,0.016,0.255,0.271,0.0726023391813,0.016,0.255,0.271,0.0726023391813,0.016,0.255,0.271,0.0726023391813,0.016,0.255,0.271,0.0726023391813
34040000,98.286928019,137.29573356,78.7825252485,0.717,0.207,0.525,0.0135,0.199,0.2125,0.0710445637505,0.0135,0.199,0.2125,0.0710445637505,0.0135,0.199,0.2125,0.0710445637505,0.0135,0.199,0.2125,0.0710445637505,0.0135,0.199,0.2125,0.0710445637505,0.0135,0.199,0.2125,0.0710445637505
34040000,98.314837491,137.61544648,78.6645329968,0.7345,0.2505,0.521,0.0155,0.248,0.2635,0.0704178430265,0.0155,0.248,0.2635,0.0704178430265,0.0155,0.248,0.2635,0.0704178430265,0.0155,0.248,0.2635,0.0704178430265,0.0155,0.248,0.2635,0.0704178430265,0.0155,0.247,0.2625,0.0708345096932
34040000,98.4704052611,138.510969058,78.4501233625,0.7675,0.322,0.4995,0.028,0.317,0.345,0.0896544312169,0.028,0.3165,0.3445,0.08999410513,0.028,0.3165,0.3445,0.08999410513,0.028,0.3165,0.3445,0.08999410513,0.028,0.3165,0.3445,0.08999410513,0.028,0.3165,0.3445,0.08999410513
34040000,99.4429912083,140.17229233,79.0783406473,0.7385,0.204,0.53,0.0105,0.1985,0.209,0.0536190078038,0.0105,0.1985,0.209,0.0536190078038,0.0105,0.1985,0.209,0.0536190078038,0.0105,0.1985,0.209,0.0536190078038,0.0105,0.1985,0.209,0.0536190078038,0.0105,0.1985,0.209,0.0536190078038
34040000,99.6088132377,140.398099433,79.2141701401,0.748,0.204,0.545,0.0175,0.203,0.2205,0.0858407655147,0.0175,0.203,0.2205,0.0858407655147,0.0175,0.203,0.2205,0.0858407655147,0.0175,0.203,0.2205,0.0858407655147,0.0175,0.203,0.2205,0.0858407655147,0.0175,0.203,0.2205,0.0858407655147
34040000,100.237356768,141.597902772,79.5570837658,0.742,0.211,0.524,0.008,0.204,0.212,0.0394041093769,0.008,0.201,0.209,0.0400311996779,0.008,0.201,0.209,0.0400311996779,0.008,0.201,0.209,0.0400311996779,0.008,0.201,0.209,0.0400311996779,0.008,0.201,0.209,0.0400311996779
34040000,100.585624374,140.892675272,80.4320989244,0.742,0.2735,0.5225,0.018,0.2675,0.2855,0.0728151015651,0.018,0.2675,0.2855,0.0728151015651,0.018,0.2675,0.2855,0.0728151015651,0.018,0.2675,0.2855,0.0728151015651,0.018,0.2675,0.2855,0.0728151015651,0.018,0.2675,0.2855,0.0728151015651
34040000,101.39541372,142.938134137,80.6240535117,0.719,0.2105,0.535,0.021,0.2025,0.2235,0.109243057043,0.021,0.2025,0.2235,0.109243057043,0.021,0.2025,0.2235,0.109243057043,0.021,0.2025,0.2235,0.109243057043,0.021,0.2025,0.2235,0.109243057043,0.021,0.2025,0.2235,0.109243057043
34080000,91.262235257,104.34298858,84.7218585957,0.92,0.344,0.696,0.016,0.344,0.36,0.046511627907,0.016,0.344,0.36,0.046511627907,0.016,0.344,0.36,0.046511627907,0.016,0.344,0.36,0.046511627907,0.016,0.344,0.36,0.046511627907,0.016,0.344,0.36,0.046511627907
34120000,97.4795704028,138.936441518,76.7511348452,0.761,0.218,0.5575,0.009,0.21,0.219,0.0440920716113,0.009,0.21,0.219,0.0440920716113,0.009,0.21,0.219,0.0440920716113,0.009,0.21,0.219,0.0440920716113,0.009,0.21,0.219,0.0440920716113,0.009,0.21,0.219,0.0440920716113
34120000,98.1573029517,133.543729026,80.4640899145,0.7745,0.208,0.5665,0.011,0.192,0.203,0.0567391304348,0.011,0.192,0.203,0.0567391304348,0.011,0.192,0.203,0.0567391304348,0.011,0.19,0.201,0.0581677018634,0.011,0.19,0.201,0.0581677018634,0.011,0.19,0.201,0.0581677018634
34120000,98.3758717587,132.061217137,81.5331990694,0.7785,0.2005,0.5735,0.01,0.1965,0.2065,0.050641025641,0.01,0.1965,0.2065,0.050641025641,0.01,0.1965,0.2065,0.050641025641,0.01,0.1845,0.1945,0.0536172161172,0.01,0.1845,0.1945,0.0536172161172,0.01,0.1845,0.1945,0.0536172161172
34120000,98.40210102,132.612665319,81.2968188704,0.7815,0.2055,0.5765,0.0115,0.1975,0.209,0.060025083612,0.0115,0.1975,0.209,0.060025083612,0.0115,0.1975,0.209,0.060025083612,0.0115,0.1975,0.209,0.060025083612,0.0115,0.1975,0.209,0.060025083612,0.0115,0.1975,0.209,0.060025083612
34120000,99.2488286679,140.102119804,78.8221830998,0.768,0.242,0.562,0.024,0.23,0.254,0.104770616381,0.024,0.23,0.254,0.104770616381,0.024,0.23,0.254,0.104770616381,0.024,0.23,0.254,0.104770616381,0.024,0.23,0.254,0.104770616381,0.024,0.23,0.254,0.104770616381
34120000,100.271279629,142.080946246,79.3664463204,0.769,0.1875,0.518,0.0255,0.186,0.2115,0.139726064998,0.0255,0.186,0.2115,0.139726064998,0.0255,0.186,0.2115,0.139726064998,0.0255,0.186,0.2115,0.139726064998,0.0255,0.186,0.2115,0.139726064998,0.0255,0.186,0.2115,0.139726064998
34120000,100.409832543,133.131490243,84.0490036932,0.7575,0.1985,0.5585,0.0085,0.189,0.1975,0.0449828130806,0.0085,0.189,0.1975,0.0449828130806,0.0085,0.189,0.1975,0.0449828130806,0.0085,0.189,0.1975,0.0449828130806,0.0085,0.189,0.1975,0.0449828130806,0.0085,0.189,0.1975,0.0449828130806
34120000,101.369198462,142.992810944,80.5573922211,0.7585,0.2725,0.5465,0.034,0.2545,0.2885,0.141033206899,0.034,0.2545,0.2885,0.141033206899,0.034,0.2545,0.2885,0.141033206899,0.026,0.2545,0.2805,0.112461778328,0.026,0.2545,0.2805,0.112461778328,0.026,0.2545,0.2805,0.112461778328
34120000,101.478857005,143.1110103,80.662780357,0.7405,0.2115,0.543,0.01,0.2095,0.2195,0.0505004910926,0.01,0.2095,0.2195,0.0505004910926,0.01,0.2095,0.2195,0.0505004910926,0.01,0.2095,0.2195,0.0505004910926,0.01,0.2095,0.2195,0.0505004910926,0.01,0.2095,0.2195,0.0505004910926
34120000,101.728412839,137.095151532,84.0450434925,0.7715,0.2085,0.563,0.02,0.196,0.216,0.102711640212,0.02,0.196,0.216,0.102711640212,0.02,0.196,0.216,0.102711640212,0.02,0.196,0.216,0.102711640212,0.02,0.196,0.216,0.102711640212,0.02,0.196,0.216,0.102711640212
34120000,102.354839974,144.906370771,81.079074576,0.7785,0.1925,0.598,0.017,0.1835,0.2005,0.090356996607,0.017,0.1835,0.2005,0.090356996607,0.017,0.1835,0.2005,0.090356996607,0.017,0.1835,0.2005,0.090356996607,0.017,0.1835,0.2005,0.090356996607,0.017,0.1835,0.2005,0.090356996607
34120000,102.55050675,145.753887476,80.948816387,0.7795,0.1945,0.583,0.0225,0.1745,0.197,0.136514107238,0.0225,0.1745,0.197,0.136514107238,0.0225,0.1745,0.197,0.136514107238,0.0225,0.1745,0.197,0.136514107238,0.0225,0.1745,0.197,0.136514107238,0.0225,0.1745,0.197,0.136514107238
34120000,102.572220978,138.577784942,84.5694389956,0.7655,0.201,0.565,0.016,0.1925,0.2085,0.0820075757576,0.016,0.1925,0.2085,0.0820075757576,0.016,0.1925,0.2085,0.0820075757576,0.016,0.1925,0.2085,0.0820075757576,0.016,0.1925,0.2085,0.0820075757576,0.016,0.1925,0.2085,0.0820075757576
34120000,102.593116517,145.36860258,81.2053734852,0.7635,0.2835,0.525,0.024,0.272,0.296,0.0999959413074,0.024,0.272,0.296,0.0999959413074,0.024,0.272,0.296,0.0999959413074,0.024,0.272,0.296,0.0999959413074,0.024,0.272,0.296,0.0999959413074,0.024,0.272,0.296,0.0999959413074
34120000,102.797906618,134.220778856,87.0864704992,0.748,0.203,0.5445,0.018,0.2015,0.2195,0.0901593660969,0.018,0.2015,0.2195,0.0901593660969,0.018,0.2015,0.2195,0.0901593660969,0.018,0.2015,0.2195,0.0901593660969,0.018,0.2015,0.2195,0.0901593660969,0.018,0.2015,0.2195,0.0901593660969
34120000,103.064494283,145.935012026,81.6292354123,0.7465,0.245,0.52,0.026,0.237,0.263,0.120238095238,0.026,0.237,0.263,0.120238095238,0.026,0.237,0.263,0.120238095238,0.026,0.237,0.263,0.120238095238,0.026,0.237,0.263,0.120238095238,0.026,0.237,0.263,0.120238095238
34120000,103.228831742,146.277690198,81.7044025146,0.8005,0.196,0.556,0.024,0.183,0.207,0.138658949746,0.024,0.183,0.207,0.138658949746,0.024,0.183,0.207,0.138658949746,0.024,0.183,0.207,0.138658949746,0.024,0.183,0.207,0.138658949746,0.024,0.183,0.207,0.138658949746
34120000,103.441194315,146.170035706,82.076773619,0.764,0.2025,0.522,0.0155,0.192,0.2075,0.0899385560676,0.0155,0.192,0.2075,0.0899385560676,0.0155,0.192,0.2075,0.0899385560676,0.0155,0.192,0.2075,0.0899385560676,0.0155,0.192,0.2075,0.0899385560676,0.0155,0.192,0.2075,0.0899385560676
34120000,103.757567689,138.997258837,86.1377221156,0.7365,0.2005,0.5365,0.017,0.1965,0.2135,0.0858170995671,0.017,0.1965,0.2135,0.0858170995671,0.017,0.1965,0.2135,0.0858170995671,0.017,0.1965,0.2135,0.0858170995671,0.017,0.1965,0.2135,0.0858170995671,0.017,0.1965,0.2135,0.0858170995671
34120000,104.449110262,137.206992442,88.0701691723,0.7355,0.201,0.547,0.017,0.198,0.215,0.0855677655678,0.017,0.198,0.215,0.0855677655678,0.017,0.198,0.215,0.0855677655678,0.017,0.198,0.215,0.0855677655678,0.017,0.198,0.215,0.0855677655678,0.017,0.198,0.215,0.0855677655678
34120000,104.473464812,139.379287102,87.0205536676,0.756,0.216,0.556,0.0325,0.214,0.2465,0.147071678322,0.0325,0.214,0.2465,0.147071678322,0.0325,0.214,0.2465,0.147071678322,0.0325,0.214,0.2465,0.147071678322,0.0325,0.214,0.2465,0.147071678322,0.0325,0.214,0.2465,0.147071678322
34120000,105.202753652,139.517372823,88.0454440662,0.7605,0.2,0.5545,0.022,0.193,0.215,0.114003623188,0.022,0.193,0.215,0.114003623188,0.022,0.193,0.215,0.114003623188,0.022,0.193,0.215,0.114003623188,0.022,0.193,0.215,0.114003623188,0.022,0.193,0.215,0.114003623188
34120000,105.988239787,142.622077141,87.6713211104,0.771,0.205,0.563,0.0195,0.2045,0.224,0.0954326923077,0.0195,0.2045,0.224,0.0954326923077,0.0195,0.2045,0.224,0.0954326923077,0.0195,0.2045,0.224,0.0954326923077,0.0195,0.2045,0.224,0.0954326923077,0.0195,0.2045,0.224,0.0954326923077
34120000,106.27339295,141.486026058,88.6670763955,0.7465,0.1975,0.5475,0.013,0.1835,0.1965,0.0693730590062,0.013,0.1835,0.1965,0.0693730590062,0.013,0.1835,0.1965,0.0693730590062,0.0105,0.1835,0.194,0.0563522256729,0.0105,0.1835,0.194,0.0563522256729,0.0105,0.1835,0.194,0.0563522256729
34120000,106.675654321,136.562181455,91.7323907538,0.756,0.2,0.5585,0.011,0.2,0.211,0.0552243589744,0.011,0.2,0.211,0.0552243589744,0.011,0.2,0.211,0.0552243589744,0.011,0.193,0.204,0.0569956140351,0.011,0.193,0.204,0.0569956140351,0.011,0.193,0.204,0.0569956140351
34120000,106.927485952,139.676541216,90.55295832,0.7275,0.1945,0.5285,0.009,0.187,0.196,0.048462995338,0.009,0.187,0.196,0.048462995338,0.009,0.187,0.196,0.048462995338,0.009,0.187,0.196,0.048462995338,0.009,0.187,0.196,0.048462995338,0.009,0.187,0.196,0.048462995338
34120000,107.367023302,142.678040948,89.7115144783,0.7745,0.205,0.572,0.013,0.196,0.209,0.0697607600733,0.013,0.196,0.209,0.0697607600733,0.013,0.196,0.209,0.0697607600733,0.013,0.196,0.209,0.0697607600733,0.013,0.188,0.201,0.0713633241758,0.013,0.188,0.201,0.0713633241758
34120000,109.673410609,145.424253256,91.7979892853,0.72,0.1995,0.5205,0.02,0.1835,0.2035,0.109862440191,0.02,0.1835,0.2035,0.109862440191,0.02,0.1835,0.2035,0.109862440191,0.02,0.1835,0.2035,0.109862440191,0.02,0.1835,0.2035,0.109862440191,0.02,0.1835,0.2035,0.109862440191
34120000,110.20150622,145.510242412,92.547138124,0.742,0.1945,0.5395,0.009,0.19,0.199,0.0471376811594,0.009,0.19,0.199,0.0471376811594,0.009,0.19,0.199,0.0471376811594,0.009,0.19,0.199,0.0471376811594,0.009,0.19,0.199,0.0471376811594,0.009,0.19,0.199,0.0471376811594
34160000,92.3983070214,135.250890287,70.9720153886,0.7645,0.242,0.56,0.0145,0.2355,0.25,0.0631730769231,0.0145,0.2355,0.25,0.0631730769231,0.0145,0.2355,0.25,0.0631730769231,0.0145,0.2355,0.25,0.0631730769231,0.0145,0.2355,0.25,0.0631730769231,0.0145,0.2355,0.25,0.0631730769231
34160000,95.047592941,126.861793067,79.1404928778,0.729,0.202,0.515,0.0245,0.1975,0.222,0.124706959707,0.0245,0.1975,0.222,0.124706959707,0.0245,0.1975,0.222,0.124706959707,0.0245,0.1975,0.222,0.124706959707,0.0245,0.1975,0.222,0.124706959707,0.0245,0.1975,0.222,0.124706959707
34160000,95.2376539633,137.655931879,74.0285150053,0.7385,0.197,0.5435,0.012,0.189,0.201,0.0617550565377,0.012,0.189,0.201,0.0617550565377,0.012,0.189,0.201,0.0617550565377,0.012,0.189,0.201,0.0617550565377,0.012,0.189,0.201,0.0617550565377,0.012,0.189,0.201,0.0617550565377
34160000,97.0348503868,141.686791624,74.7088797682,0.7335,0.1975,0.5105,0.0215,0.193,0.2145,0.111609848485,0.0215,0.193,0.2145,0.111609848485,0.0215,0.193,0.2145,0.111609848485,0.0215,0.193,0.2145,0.111609848485,0.0215,0.193,0.2145,0.111609848485,0.0215,0.193,0.2145,0.111609848485
34160000,97.5647208379,138.708633822,76.9927643457,0.6765,0.2005,0.445,0.0125,0.1895,0.202,0.0679545454545,0.0125,0.1895,0.202,0.0679545454545,0.0125,0.1895,0.202,0.0679545454545,0.0125,0.1895,0.202,0.0679545454545,0.0125,0.1895,0.202,0.0679545454545,0.0125,0.1895,0.202,0.0679545454545
34160000,98.7802993664,139.182079099,78.5794095002,0.784,0.199,0.576,0.021,0.195,0.216,0.112792025836,0.021,0.195,0.216,0.112792025836,0.021,0.195,0.216,0.112792025836,0.021,0.195,0.216,0.112792025836,0.021,0.195,0.216,0.112792025836,0.021,0.195,0.216,0.112792025836
34160000,105.417477107,149.719978357,83.2662264813,0.691,0.198,0.4875,0.017,0.193,0.21,0.0909761005585,0.017,0.193,0.21,0.0909761005585,0.017,0.193,0.21,0.0909761005585,0.017,0.193,0.21,0.0909761005585,0.015,0.193,0.208,0.0783902882015,0.015,0.193,0.208,0.0783902882015
34160000,105.549273137,150.400059235,83.1238800882,0.709,0.2005,0.5115,0.015,0.194,0.209,0.0779141782131,0.015,0.194,0.209,0.0779141782131,0.015,0.194,0.209,0.0779141782131,0.015,0.194,0.209,0.0779141782131,0.015,0.194,0.209,0.0779141782131,0.015,0.194,0.209,0.0779141782131
34160000,106.174391098,147.725881927,85.398645683,0.783,0.337,0.516,0.0225,0.3305,0.353,0.0755366542333,0.0225,0.3305,0.353,0.0755366542333,0.0225,0.3305,0.353,0.0755366542333,0.0225,0.3305,0.353,0.0755366542333,0.0225,0.3305,0.353,0.0755366542333,0.0225,0.3305,0.353,0.0755366542333
34160000,108.185814887,149.859894314,87.3487751729,0.706,0.2715,0.4995,0.013,0.2615,0.2745,0.0597109487734,0.013,0.2615,0.2745,0.0597109487734,0.013,0.2615,0.2745,0.0597109487734,0.013,0.2615,0.2745,0.0597109487734,0.013,0.2615,0.2745,0.0597109487734,0.013,0.2615,0.2745,0.0597109487734
34200000,89.8669087648,121.557371506,74.0216773941,0.6775,0.205,0.4575,0.016,0.203,0.219,0.078732630594,0.016,0.203,0.219,0.078732630594,0.016,0.203,0.219,0.078732630594,0.016,0.203,0.219,0.078732630594,0.016,0.203,0.219,0.078732630594,0.016,0.203,0.219,0.078732630594
34200000,94.4748314074,138.706010206,72.359242008,0.786,0.2145,0.5675,0.0195,0.2105,0.23,0.092406517094,0.0195,0.2105,0.23,0.092406517094,0.0195,0.2105,0.23,0.092406517094,0.0195,0.2105,0.23,0.092406517094,0.0195,0.2105,0.23,0.092406517094,0.0195,0.2105,0.23,0.092406517094
34200000,94.6609624032,137.374873007,73.3040071013,0.815,0.2295,0.5985,0.0145,0.223,0.2375,0.0656678281069,0.0145,0.223,0.2375,0.0656678281069,0.0145,0.223,0.2375,0.0656678281069,0.0145,0.223,0.2375,0.0656678281069,0.0145,0.223,0.2375,0.0656678281069,0.0145,0.223,0.2375,0.0656678281069
34200000,95.3696671163,139.97744404,73.0657786547,0.8055,0.22,0.589,0.023,0.219,0.242,0.105244581807,0.023,0.219,0.242,0.105244581807,0.023,0.219,0.242,0.105244581807,0.023,0.219,0.242,0.105244581807,0.023,0.219,0.242,0.105244581807,0.023,0.219,0.242,0.105244581807
34200000,95.4326274229,140.98479328,72.6565444946,0.8325,0.334,0.6325,0.0285,0.332,0.3605,0.121494166884,0.0285,0.332,0.3605,0.121494166884,0.0285,0.332,0.3605,0.121494166884,0.0285,0.332,0.3605,0.121494166884,0.0285,0.332,0.3605,0.121494166884,0.0285,0.332,0.3605,0.121494166884
34200000,95.5578954968,140.130569329,73.2715585807,0.814,0.218,0.601,0.02,0.2125,0.2325,0.097323972324,0.02,0.2125,0.2325,0.097323972324,0.02,0.2125,0.2325,0.097323972324,0.02,0.2125,0.2325,0.097323972324,0.02,0.2125,0.2325,0.097323972324,0.02,0.2125,0.2325,0.097323972324
34200000,96.4373274441,142.475858005,73.4180621636,0.811,0.2195,0.5885,0.0205,0.2045,0.225,0.0976254184416,0.0205,0.2045,0.225,0.0976254184416,0.0205,0.2045,0.225,0.0976254184416,0.0205,0.2045,0.225,0.0976254184416,0.0205,0.2045,0.225,0.0976254184416,0.0205,0.2045,0.225,0.0976254184416
34200000,96.8608032449,141.751872447,74.4152686441,0.7825,0.2105,0.5675,0.045,0.2065,0.2515,0.22837547191,0.045,0.2065,0.2515,0.22837547191,0.045,0.2065,0.2515,0.22837547191,0.045,0.2065,0.2515,0.22837547191,0.045,0.2065,0.2515,0.22837547191,0.045,0.2055,0.2505,0.229014041514
34200000,97.2371995806,144.664276098,73.5236613219,0.8205,0.2095,0.612,0.0205,0.2005,0.221,0.103187321937,0.0205,0.2005,0.221,0.103187321937,0.0205,0.2005,0.221,0.103187321937,0.0205,0.2005,0.221,0.103187321937,0.0205,0.2005,0.221,0.103187321937,0.0205,0.2005,0.221,0.103187321937
34200000,97.3509409929,142.893374278,74.5797243502,0.819,0.2445,0.589,0.0105,0.2405,0.251,0.0429766992267,0.0105,0.2405,0.251,0.0429766992267,0.0105,0.2405,0.251,0.0429766992267,0.0105,0.2405,0.251,0.0429766992267,0.0105,0.2405,0.251,0.0429766992267,0.0105,0.2405,0.251,0.0429766992267
34200000,97.4096836075,143.493546881,74.3677519709,0.8315,0.217,0.6195,0.0365,0.213,0.2495,0.169685638436,0.0365,0.213,0.2495,0.169685638436,0.0365,0.213,0.2495,0.169685638436,0.0365,0.213,0.2495,0.169685638436,0.0365,0.211,0.2475,0.170397889148,0.0365,0.211,0.2475,0.170397889148
34200000,97.4975444773,144.301109074,74.095762179,0.8165,0.215,0.607,0.017,0.2135,0.2305,0.0798896011396,0.017,0.2135,0.2305,0.0798896011396,0.017,0.2135,0.2305,0.0798896011396,0.017,0.2135,0.2305,0.0798896011396,0.017,0.2135,0.2305,0.0798896011396,0.017,0.2135,0.2305,0.0798896011396
34200000,97.6236479032,143.87123909,74.4998523099,0.782,0.221,0.564,0.0095,0.201,0.2105,0.0468714055671,0.0095,0.201,0.2105,0.0468714055671,0.0095,0.201,0.2105,0.0468714055671,0.0095,0.201,0.2105,0.0468714055671,0.0095,0.201,0.2105,0.0468714055671,0.0095,0.201,0.2105,0.0468714055671
34200000,97.9725243235,137.142519011,78.3875269797,0.7075,0.2185,0.5165,0.0115,0.2185,0.23,0.052414021164,0.0115,0.2125,0.224,0.0545568783069,0.0115,0.2125,0.224,0.0545568783069,0.0115,0.2125,0.224,0.0545568783069,0.0115,0.2125,0.224,0.0545568783069,0.0115,0.2125,0.224,0.0545568783069
34200000,98.1532519543,145.622444719,74.418655572,0.815,0.223,0.592,0.017,0.2125,0.2295,0.0805987993488,0.017,0.2125,0.2295,0.0805987993488,0.017,0.2125,0.2295,0.0805987993488,0.017,0.2125,0.2295,0.0805987993488,0.017,0.2125,0.2295,0.0805987993488,0.017,0.2125,0.2295,0.0805987993488
34200000,98.4131334619,143.088176368,76.0756120089,0.775,0.2185,0.5655,0.0195,0.2155,0.235,0.0903379028379,0.0195,0.2155,0.235,0.0903379028379,0.0195,0.2155,0.235,0.0903379028379,0.0195,0.2155,0.235,0.0903379028379,0.0175,0.2155,0.233,0.0814093314093,0.0175,0.2155,0.233,0.0814093314093
34200000,98.7291827368,133.520581056,81.3334835774,0.611,0.202,0.4145,0.0155,0.1975,0.213,0.0784336677815,0.0155,0.1975,0.213,0.0784336677815,0.0155,0.1975,0.213,0.0784336677815,0.0155,0.1975,0.213,0.0784336677815,0.0155,0.1975,0.213,0.0784336677815,0.0155,0.1975,0.213,0.0784336677815
34200000,98.730314237,146.288453137,74.9512447868,0.814,0.2205,0.5915,0.009,0.209,0.218,0.0433048433048,0.009,0.209,0.218,0.0433048433048,0.009,0.209,0.218,0.0433048433048,0.009,0.209,0.218,0.0433048433048,0.009,0.209,0.218,0.0433048433048,0.009,0.209,0.218,0.0433048433048
34200000,98.7901378502,140.491742716,77.9393354174,0.7605,0.1525,0.5465,0.013,0.132,0.145,0.0996953227931,0.013,0.132,0.145,0.0996953227931,0.013,0.132,0.145,0.0996953227931,0.013,0.132,0.145,0.0996953227931,0.011,0.132,0.143,0.0883316864295,0.011,0.132,0.143,0.0883316864295
34200000,99.1428764003,146.780801992,75.3239136045,0.808,0.2205,0.585,0.019,0.212,0.231,0.088955026455,0.019,0.212,0.231,0.088955026455,0.019,0.212,0.231,0.088955026455,0.019,0.212,0.231,0.088955026455,0.019,0.212,0.231,0.088955026455,0.019,0.212,0.231,0.088955026455
34200000,99.1940642971,145.260789564,76.1607016638,0.7685,0.2285,0.5575,0.0305,0.219,0.2495,0.139895864034,0.0305,0.219,0.2495,0.139895864034,0.0305,0.219,0.2495,0.139895864034,0.0305,0.219,0.2495,0.139895864034,0.0305,0.219,0.2495,0.139895864034,0.0305,0.219,0.2495,0.139895864034
34200000,99.5548835129,146.533203427,76.0657235561,0.7925,0.215,0.5725,0.0085,0.208,0.2165,0.0409002340252,0.0085,0.208,0.2165,0.0409002340252,0.0085,0.208,0.2165,0.0409002340252,0.0085,0.208,0.2165,0.0409002340252,0.0085,0.208,0.2165,0.0409002340252,0.0085,0.208,0.2165,0.0409002340252
34200000,100.031511689,147.117989516,76.4882727753,0.7635,0.2045,0.557,0.0125,0.2025,0.215,0.0606944444444,0.0125,0.2025,0.215,0.0606944444444,0.0125,0.2025,0.215,0.0606944444444,0.0125,0.2025,0.215,0.0606944444444,0.0125,0.2025,0.215,0.0606944444444,0.0125,0.2025,0.215,0.0606944444444
34200000,100.048000579,146.23077503,76.9566133529,0.829,0.211,0.61,0.0085,0.2065,0.215,0.0411894586895,0.0085,0.2065,0.215,0.0411894586895,0.0085,0.2065,0.215,0.0411894586895,0.0085,0.2065,0.215,0.0411894586895,0.0085,0.2065,0.215,0.0411894586895,0.0085,0.2065,0.215,0.0411894586895
34200000,100.076162542,147.254759626,76.4868640001,0.805,0.219,0.5895,0.0275,0.215,0.2425,0.125744047619,0.0275,0.215,0.2425,0.125744047619,0.0275,0.215,0.2425,0.125744047619,0.0275,0.215,0.2425,0.125744047619,0.0275,0.215,0.2425,0.125744047619,0.0275,0.215,0.2425,0.125744047619
34200000,100.711664248,147.279787955,77.427602395,0.809,0.2175,0.5925,0.03,0.208,0.238,0.144277679536,0.03,0.208,0.238,0.144277679536,0.03,0.2,0.23,0.146182441441,0.03,0.2,0.23,0.146182441441,0.03,0.2,0.23,0.146182441441,0.03,0.2,0.23,0.146182441441
34200000,100.813048794,145.654512436,78.3923169728,0.7575,0.208,0.5415,0.024,0.2055,0.2295,0.116909722222,0.024,0.2055,0.2295,0.116909722222,0.024,0.2055,0.2295,0.116909722222,0.024,0.2055,0.2295,0.116909722222,0.024,0.2055,0.2295,0.116909722222,0.024,0.2055,0.2295,0.116909722222
34200000,101.191074948,147.215445653,78.1788895947,0.7795,0.2155,0.569,0.01,0.2075,0.2175,0.0482187649307,0.01,0.2075,0.2175,0.0482187649307,0.01,0.2075,0.2175,0.0482187649307,0.01,0.2075,0.2175,0.0482187649307,0.01,0.2075,0.2175,0.0482187649307,0.01,0.2075,0.2175,0.0482187649307
34200000,101.451651396,149.042878623,77.6560377817,0.815,0.221,0.592,0.0095,0.2175,0.227,0.0447777866256,0.0095,0.2175,0.227,0.0447777866256,0.0095,0.2175,0.227,0.0447777866256,0.0095,0.2175,0.227,0.0447777866256,0.0095,0.2175,0.227,0.0447777866256,0.0095,0.2155,0.225,0.0451084744563
34200000,101.57689528,148.611272835,78.0597065022,0.7745,0.2145,0.5545,0.014,0.2075,0.2215,0.0677994549734,0.014,0.2075,0.2215,0.0677994549734,0.014,0.2075,0.2215,0.0677994549734,0.014,0.2075,0.2215,0.0677994549734,0.014,0.2075,0.2215,0.0677994549734,0.014,0.2075,0.2215,0.0677994549734
34200000,101.648706452,149.147519767,77.8992997944,0.7875,0.208,0.5695,0.012,0.204,0.216,0.0592307692308,0.012,0.204,0.216,0.0592307692308,0.012,0.204,0.216,0.0592307692308,0.012,0.204,0.216,0.0592307692308,0.012,0.204,0.216,0.0592307692308,0.012,0.204,0.216,0.0592307692308
34200000,102.046081138,147.303948533,79.4171474407,0.801,0.2265,0.578,0.0215,0.2245,0.246,0.0950895225464,0.0215,0.2245,0.246,0.0950895225464,0.0215,0.2245,0.246,0.0950895225464,0.0215,0.2245,0.246,0.0950895225464,0.0215,0.2245,0.246,0.0950895225464,0.0175,0.2245,0.242,0.0772323796893
34200000,102.211825358,146.345339183,80.1450684456,0.74,0.2025,0.523,0.009,0.189,0.198,0.0566119610237,0.009,0.189,0.198,0.0566119610237,0.009,0.189,0.198,0.0566119610237,0.009,0.189,0.198,0.0566119610237,0.009,0.189,0.198,0.0566119610237,0.009,0.189,0.198,0.0566119610237
34200000,102.253878549,149.256401529,78.7526170586,0.778,0.237,0.556,0.017,0.23,0.247,0.0755748880749,0.017,0.23,0.247,0.0755748880749,0.017,0.23,0.247,0.0755748880749,0.016,0.23,0.246,0.0725986975987,0.016,0.23,0.246,0.0725986975987,0.016,0.23,0.246,0.0725986975987
34200000,102.340286762,148.973139586,79.0238603503,0.799,0.221,0.582,0.016,0.217,0.233,0.0746946619791,0.016,0.217,0.233,0.0746946619791,0.016,0.217,0.233,0.0746946619791,0.016,0.217,0.233,0.0746946619791,0.016,0.217,0.233,0.0746946619791,0.016,0.217,0.233,0.0746946619791
34200000,102.382417319,149.482683407,78.8322842756,0.8045,0.2255,0.588,0.0145,0.22,0.2345,0.0662192118227,0.0145,0.22,0.2345,0.0662192118227,0.0145,0.22,0.2345,0.0662192118227,0.0145,0.22,0.2345,0.0662192118227,0.0145,0.22,0.2345,0.0662192118227,0.0145,0.22,0.2345,0.0662192118227
34200000,102.493706165,148.542934254,79.4690921208,0.7645,0.3515,0.557,0.012,0.3395,0.3515,0.0475733525734,0.012,0.3395,0.3515,0.0475733525734,0.012,0.3395,0.3515,0.0475733525734,0.012,0.3395,0.3515,0.0475733525734,0.012,0.3395,0.3515,0.0475733525734,0.012,0.3395,0.3515,0.0475733525734
34200000,102.548683378,148.033029799,79.8065101677,0.779,0.206,0.572,0.0125,0.2035,0.216,0.0626032763533,0.0125,0.2035,0.216,0.0626032763533,0.0125,0.2035,0.216,0.0626032763533,0.0125,0.2035,0.216,0.0626032763533,0.0125,0.2035,0.216,0.0626032763533,0.0125,0.2035,0.216,0.0626032763533
34200000,102.819870372,149.628402069,79.4156045228,0.804,0.219,0.5865,0.012,0.194,0.206,0.0599335748792,0.012,0.194,0.206,0.0599335748792,0.012,0.194,0.206,0.0599335748792,0.012,0.194,0.206,0.0599335748792,0.012,0.194,0.206,0.0599335748792,0.012,0.194,0.206,0.0599335748792
34200000,102.83407291,149.355663839,79.5732774458,0.783,0.222,0.564,0.0285,0.2165,0.245,0.128695563696,0.0285,0.2165,0.245,0.128695563696,0.0285,0.2165,0.245,0.128695563696,0.0285,0.2165,0.245,0.128695563696,0.0285,0.2165,0.245,0.128695563696,0.0285,0.2165,0.245,0.128695563696
34200000,102.907443795,149.547644873,79.5873432561,0.777,0.2105,0.567,0.0085,0.1905,0.199,0.0446754332624,0.0085,0.1905,0.199,0.0446754332624,0.0085,0.1905,0.199,0.0446754332624,0.0085,0.1905,0.199,0.0446754332624,0.0085,0.1905,0.199,0.0446754332624,0.0085,0.1905,0.199,0.0446754332624
34200000,103.335500612,149.555026311,80.2257377625,0.774,0.2115,0.56,0.0135,0.2055,0.219,0.0660689954168,0.0135,0.2055,0.219,0.0660689954168,0.0135,0.2055,0.219,0.0660689954168,0.0135,0.2055,0.219,0.0660689954168,0.0135,0.2055,0.219,0.0660689954168,0.0135,0.2055,0.219,0.0660689954168
34200000,103.774367664,149.202186459,81.0604582666,0.768,0.2465,0.551,0.0095,0.233,0.2425,0.0440731721982,0.0095,0.233,0.2425,0.0440731721982,0.0095,0.233,0.2425,0.0440731721982,0.0095,0.233,0.2425,0.0440731721982,0.0095,0.233,0.2425,0.0440731721982,0.0095,0.233,0.2425,0.0440731721982
34200000,103.833736175,149.468388622,81.0164099515,0.792,0.2195,0.5685,0.013,0.1975,0.2105,0.0660252891231,0.013,0.1975,0.2105,0.0660252891231,0.013,0.1975,0.2105,0.0660252891231,0.013,0.1975,0.2105,0.0660252891231,0.013,0.1975,0.2105,0.0660252891231,0.013,0.1975,0.2105,0.0660252891231
34200000,104.123919598,149.083816249,81.6439712718,0.7655,0.2115,0.556,0.0355,0.21,0.2455,0.168536324786,0.0355,0.21,0.2455,0.168536324786,0.0355,0.21,0.2455,0.168536324786,0.0355,0.21,0.2455,0.168536324786,0.0355,0.21,0.2455,0.168536324786,0.0355,0.21,0.2455,0.168536324786
34200000,104.696245948,149.483952719,82.3023925623,0.777,0.208,0.5675,0.009,0.2,0.209,0.0448784639274,0.009,0.2,0.209,0.0448784639274,0.009,0.2,0.209,0.0448784639274,0.009,0.2,0.209,0.0448784639274,0.009,0.2,0.209,0.0448784639274,0.009,0.2,0.209,0.0448784639274
34200000,104.963006126,149.554708797,82.6671547901,0.7675,0.219,0.5495,0.015,0.214,0.229,0.0699786324786,0.015,0.214,0.229,0.0699786324786,0.015,0.214,0.229,0.0699786324786,0.015,0.214,0.229,0.0699786324786,0.015,0.214,0.229,0.0699786324786,0.015,0.214,0.229,0.0699786324786
34200000,105.386960542,149.458669101,83.3511062623,0.7575,0.21,0.547,0.01,0.197,0.207,0.0509016164994,0.01,0.197,0.207,0.0509016164994,0.01,0.197,0.207,0.0509016164994,0.01,0.197,0.207,0.0509016164994,0.01,0.197,0.207,0.0509016164994,0.01,0.197,0.207,0.0509016164994
34200000,106.353841851,149.437948659,84.811788447,0.7695,0.2235,0.5495,0.0165,0.2185,0.235,0.0756868131868,0.0165,0.2185,0.235,0.0756868131868,0.0165,0.2185,0.235,0.0756868131868,0.0165,0.2185,0.235,0.0756868131868,0.0165,0.2185,0.235,0.0756868131868,0.0165,0.2185,0.235,0.0756868131868
34200000,107.227628771,143.737832687,88.9725268134,0.647,0.197,0.398,0.0165,0.195,0.2115,0.0877367238237,0.0165,0.195,0.2115,0.0877367238237,0.0165,0.195,0.2115,0.0877367238237,0.0165,0.195,0.2115,0.0877367238237,0.0165,0.195,0.2115,0.0877367238237,0.0165,0.195,0.2115,0.0877367238237
34200000,107.337651321,149.984892332,86.0140308154,0.672,0.1925,0.48,0.0225,0.1845,0.207,0.124900009411,0.0225,0.1845,0.207,0.124900009411,0.0225,0.1845,0.207,0.124900009411,0.0225,0.1845,0.207,0.124900009411,0.0225,0.1845,0.207,0.124900009411,0.0225,0.1845,0.207,0.124900009411
34200000,107.775748018,149.661077238,86.8330834082,0.743,0.206,0.5355,0.0105,0.1975,0.208,0.0528668091168,0.0105,0.1975,0.208,0.0528668091168,0.0105,0.1975,0.208,0.0528668091168,0.0105,0.1975,0.208,0.0528668091168,0.0105,0.1975,0.208,0.0528668091168,0.0105,0.1975,0.208,0.0528668091168
34200000,108.651441375,149.536019146,88.2091524893,0.735,0.2095,0.528,0.008,0.206,0.214,0.0390943169891,0.008,0.206,0.214,0.0390943169891,0.008,0.206,0.214,0.0390943169891,0.008,0.206,0.214,0.0390943169891,0.008,0.206,0.214,0.0390943169891,0.008,0.206,0.214,0.0390943169891
34240000,100.573395496,146.349247539,77.6854694751,0.7155,0.2005,0.5105,0.011,0.187,0.198,0.0579356060606,0.011,0.187,0.198,0.0579356060606,0.011,0.187,0.198,0.0579356060606,0.011,0.187,0.198,0.0579356060606,0.011,0.187,0.198,0.0579356060606,0.011,0.187,0.198,0.0579356060606
34240000,100.840645238,146.910441731,77.8057469919,0.7265,0.196,0.527,0.013,0.193,0.206,0.0682676305388,0.013,0.193,0.206,0.0682676305388,0.013,0.193,0.206,0.0682676305388,0.013,0.193,0.206,0.0682676305388,0.013,0.193,0.206,0.0682676305388,0.013,0.193,0.206,0.0682676305388
34240000,102.34610357,148.839010235,79.0996502371,0.7195,0.383,0.4355,0.0085,0.379,0.3875,0.0344324287143,0.0085,0.379,0.3875,0.0344324287143,0.0085,0.379,0.3875,0.0344324287143,0.0085,0.379,0.3875,0.0344324287143,0.0085,0.379,0.3875,0.0344324287143,0.0085,0.379,0.3875,0.0344324287143
34240000,102.540951268,148.755139807,79.4338569993,0.6915,0.2115,0.4865,0.01,0.1975,0.2075,0.0549237804878,0.01,0.1975,0.2075,0.0549237804878,0.01,0.1975,0.2075,0.0549237804878,0.01,0.1975,0.2075,0.0549237804878,0.01,0.1975,0.2075,0.0549237804878,0.01,0.1975,0.2075,0.0549237804878
34240000,103.314789385,149.022652038,80.4608580583,0.7215,0.3325,0.447,0.0285,0.3325,0.361,0.0945806526404,0.0285,0.3325,0.361,0.0945806526404,0.0285,0.3325,0.361,0.0945806526404,0.0285,0.3325,0.361,0.0945806526404,0.0285,0.3325,0.361,0.0945806526404,0.0285,0.3325,0.361,0.0945806526404
34240000,103.539191019,149.681127961,80.4682225471,0.7,0.198,0.499,0.013,0.1885,0.2015,0.0715016233766,0.013,0.1885,0.2015,0.0715016233766,0.013,0.1885,0.2015,0.0715016233766,0.013,0.1885,0.2015,0.0715016233766,0.013,0.1885,0.2015,0.0715016233766,0.013,0.1885,0.2015,0.0715016233766
34240000,103.807328883,149.211767534,81.1051095569,0.6715,0.192,0.487,0.0135,0.1845,0.198,0.0730971926624,0.0135,0.1845,0.198,0.0730971926624,0.0135,0.1845,0.198,0.0730971926624,0.0135,0.1845,0.198,0.0730971926624,0.0135,0.1845,0.198,0.0730971926624,0.0135,0.1845,0.198,0.0730971926624
34240000,104.702445737,149.141474136,82.4829315371,0.706,0.207,0.503,0.012,0.202,0.214,0.0604967948718,0.012,0.202,0.214,0.0604967948718,0.012,0.202,0.214,0.0604967948718,0.012,0.202,0.214,0.0604967948718,0.012,0.202,0.214,0.0604967948718,0.012,0.202,0.214,0.0604967948718
34240000,105.336458631,149.736329532,83.136523181,0.692,0.196,0.48,0.028,0.196,0.224,0.1425,0.028,0.196,0.224,0.1425,0.028,0.196,0.224,0.1425,0.028,0.196,0.224,0.1425,0.028,0.196,0.224,0.1425,0.028,0.196,0.224,0.1425
34240000,106.702690383,149.861213268,85.1234289398,0.6575,0.2375,0.463,0.033,0.2285,0.2615,0.16453559683,0.033,0.2285,0.2615,0.16453559683,0.033,0.2285,0.2615,0.16453559683,0.033,0.2285,0.2615,0.16453559683,0.033,0.2285,0.2615,0.16453559683,0.033,0.2285,0.2615,0.16453559683
34240000,106.902003749,149.132221501,85.7868948735,0.6385,0.2,0.446,0.0105,0.193,0.2035,0.0544791666667,0.0105,0.193,0.2035,0.0544791666667,0.0105,0.193,0.2035,0.0544791666667,0.0105,0.193,0.2035,0.0544791666667,0.0105,0.193,0.2035,0.0544791666667,0.0105,0.193,0.2035,0.0544791666667
34480000,96.8287383061,138.923119889,75.7815475148,0.684,0.195,0.503,0.0285,0.1895,0.218,0.150983536391,0.0285,0.1895,0.218,0.150983536391,0.0285,0.1895,0.218,0.150983536391,0.0285,0.1895,0.218,0.150983536391,0.0285,0.1895,0.218,0.150983536391,0.0285,0.1895,0.218,0.150983536391
34480000,98.5253908283,148.232413504,73.6718794906,0.809,0.2005,0.606,0.008,0.184,0.192,0.0438415750916,0.008,0.184,0.192,0.0438415750916,0.008,0.184,0.192,0.0438415750916,0.008,0.184,0.192,0.0438415750916,0.008,0.184,0.192,0.0438415750916,0.008,0.184,0.192,0.0438415750916
34480000,98.5291854183,148.085769129,73.7508935631,0.798,0.1985,0.603,0.0145,0.1875,0.202,0.0775588768116,0.0145,0.1875,0.202,0.0775588768116,0.0145,0.1875,0.202,0.0775588768116,0.0145,0.1875,0.202,0.0775588768116,0.0145,0.1875,0.202,0.0775588768116,0.0145,0.1875,0.202,0.0775588768116
34480000,98.8831414152,140.571269714,78.0390772659,0.6745,0.175,0.5265,0.016,0.175,0.191,0.0873654689609,0.016,0.175,0.191,0.0873654689609,0.016,0.175,0.191,0.0873654689609,0.016,0.175,0.191,0.0873654689609,0.016,0.175,0.191,0.0873654689609,0.016,0.175,0.191,0.0873654689609
34480000,98.9259193099,135.551616831,80.6130705491,0.624,0.206,0.446,0.012,0.195,0.207,0.0607978479853,0.012,0.195,0.207,0.0607978479853,0.012,0.195,0.207,0.0607978479853,0.012,0.195,0.207,0.0607978479853,0.012,0.195,0.207,0.0607978479853,0.012,0.195,0.207,0.0607978479853
34480000,99.1223194803,148.049047218,74.6589556114,0.796,0.208,0.595,0.0115,0.201,0.2125,0.0580170011148,0.0115,0.201,0.2125,0.0580170011148,0.0115,0.201,0.2125,0.0580170011148,0.0115,0.201,0.2125,0.0580170011148,0.0115,0.201,0.2125,0.0580170011148,0.0115,0.201,0.2125,0.0580170011148
34480000,99.3638756844,149.739101094,74.1762629795,0.816,0.2015,0.617,0.018,0.183,0.201,0.104325980392,0.018,0.183,0.201,0.104325980392,0.018,0.183,0.201,0.104325980392,0.018,0.183,0.201,0.104325980392,0.018,0.183,0.201,0.104325980392,0.018,0.183,0.201,0.104325980392
34480000,100.002898231,149.706144372,75.1512751606,0.791,0.201,0.589,0.015,0.1945,0.2095,0.0777746212121,0.015,0.1945,0.2095,0.0777746212121,0.015,0.1945,0.2095,0.0777746212121,0.015,0.1945,0.2095,0.0777746212121,0.015,0.1945,0.2095,0.0777746212121,0.015,0.1945,0.2095,0.0777746212121
34480000,100.100048177,149.561123648,75.3695104406,0.769,0.187,0.574,0.008,0.167,0.175,0.0482487922705,0.008,0.167,0.175,0.0482487922705,0.008,0.167,0.175,0.0482487922705,0.008,0.167,0.175,0.0482487922705,0.008,0.167,0.175,0.0482487922705,0.008,0.167,0.175,0.0482487922705
34480000,100.306590689,149.893396254,75.513187906,0.814,0.199,0.6145,0.0185,0.188,0.2065,0.0994322299078,0.0165,0.188,0.2045,0.0880685935441,0.0165,0.188,0.2045,0.0880685935441,0.0165,0.188,0.2045,0.0880685935441,0.0165,0.188,0.2045,0.0880685935441,0.0165,0.188,0.2045,0.0880685935441
34480000,100.471155682,149.685633989,75.8639165279,0.78,0.196,0.586,0.014,0.1915,0.2055,0.0735824275362,0.014,0.1915,0.2055,0.0735824275362,0.014,0.1915,0.2055,0.0735824275362,0.014,0.1915,0.2055,0.0735824275362,0.014,0.1915,0.2055,0.0735824275362,0.014,0.1915,0.2055,0.0735824275362
34480000,100.550345606,149.16348563,76.2437755947,0.7765,0.1995,0.577,0.015,0.1865,0.2015,0.079660326087,0.015,0.1865,0.2015,0.079660326087,0.015,0.1865,0.2015,0.079660326087,0.015,0.1865,0.2015,0.079660326087,0.015,0.1865,0.2015,0.079660326087,0.015,0.1865,0.2015,0.079660326087
34480000,100.56764416,148.752542672,76.4751949036,0.778,0.2005,0.5835,0.0185,0.196,0.2145,0.0957741814821,0.0145,0.196,0.2105,0.0740350510474,0.0145,0.196,0.2105,0.0740350510474,0.0145,0.196,0.2105,0.0740350510474,0.0145,0.196,0.2105,0.0740350510474,0.0145,0.196,0.2105,0.0740350510474
34480000,100.922153922,150.093619621,76.336421073,0.7945,0.1945,0.5975,0.0285,0.188,0.2165,0.149479166667,0.0285,0.188,0.2165,0.149479166667,0.0285,0.188,0.2165,0.149479166667,0.0285,0.188,0.2165,0.149479166667,0.0285,0.188,0.2165,0.149479166667,0.0285,0.188,0.2165,0.149479166667
34480000,101.025118934,149.653839332,76.7107587359,0.811,0.202,0.61,0.025,0.198,0.223,0.126428571429,0.025,0.198,0.223,0.126428571429,0.025,0.198,0.223,0.126428571429,0.025,0.198,0.223,0.126428571429,0.025,0.198,0.223,0.126428571429,0.025,0.198,0.223,0.126428571429
34480000,101.247293204,150.100913337,76.8204831366,0.885,0.199,0.6955,0.0145,0.1885,0.203,0.0776337129055,0.0145,0.1885,0.203,0.0776337129055,0.0145,0.1885,0.203,0.0776337129055,0.0145,0.1885,0.203,0.0776337129055,0.0145,0.1885,0.203,0.0776337129055,0.0145,0.1885,0.203,0.0776337129055
34480000,101.264547216,149.745942224,77.0238497119,0.899,0.2275,0.658,0.0235,0.2225,0.246,0.108047327832,0.0235,0.2225,0.246,0.108047327832,0.0235,0.2225,0.246,0.108047327832,0.0235,0.2225,0.246,0.108047327832,0.0235,0.2225,0.246,0.108047327832,0.0235,0.2225,0.246,0.108047327832
34480000,101.277906494,149.968629434,76.9325450241,0.7785,0.199,0.5795,0.011,0.1915,0.2025,0.0573097826087,0.011,0.1915,0.2025,0.0573097826087,0.011,0.1915,0.2025,0.0573097826087,0.011,0.1915,0.2025,0.0573097826087,0.011,0.1915,0.2025,0.0573097826087,0.011,0.1915,0.2025,0.0573097826087
34480000,101.340615094,149.98025723,77.0207940262,0.8025,0.198,0.6005,0.023,0.188,0.211,0.12365942029,0.023,0.188,0.211,0.12365942029,0.023,0.188,0.211,0.12365942029,0.023,0.188,0.211,0.12365942029,0.023,0.188,0.211,0.12365942029,0.023,0.188,0.211,0.12365942029
34480000,101.476728454,149.809038558,77.3105734015,0.8685,0.2235,0.6445,0.013,0.2175,0.2305,0.0596319190069,0.013,0.2175,0.2305,0.0596319190069,0.013,0.2175,0.2305,0.0596319190069,0.013,0.2175,0.2305,0.0596319190069,0.013,0.2175,0.2305,0.0596319190069,0.013,0.2175,0.2305,0.0596319190069
34480000,102.028099205,150.107993417,77.9881520997,0.7875,0.199,0.5875,0.0195,0.174,0.1935,0.111466685488,0.0195,0.174,0.1935,0.111466685488,0.0195,0.174,0.1935,0.111466685488,0.0195,0.174,0.1935,0.111466685488,0.0195,0.174,0.1935,0.111466685488,0.0195,0.174,0.1935,0.111466685488
34480000,102.053509694,150.017704392,78.0714123451,0.773,0.2,0.5735,0.0095,0.1945,0.204,0.0493432971014,0.0095,0.1945,0.204,0.0493432971014,0.0095,0.1945,0.204,0.0493432971014,0.0095,0.1945,0.204,0.0493432971014,0.0095,0.1945,0.204,0.0493432971014,0.0095,0.1945,0.204,0.0493432971014
34480000,102.135863629,150.029697867,78.1889465108,0.793,0.1985,0.589,0.009,0.198,0.207,0.0457175925926,0.009,0.198,0.207,0.0457175925926,0.009,0.198,0.207,0.0457175925926,0.009,0.198,0.207,0.0457175925926,0.009,0.198,0.207,0.0457175925926,0.009,0.198,0.207,0.0457175925926
34480000,102.659940127,150.178808726,78.900505827,0.773,0.195,0.5765,0.0135,0.1935,0.207,0.0671527777778,0.0135,0.193,0.2065,0.0673611111111,0.0135,0.193,0.2065,0.0673611111111,0.0135,0.193,0.2065,0.0673611111111,0.0135,0.193,0.2065,0.0673611111111,0.0135,0.193,0.2065,0.0673611111111
34480000,102.81779108,148.305765282,80.0738039788,0.7655,0.1975,0.5715,0.019,0.191,0.21,0.0991673634337,0.019,0.191,0.21,0.0991673634337,0.019,0.191,0.21,0.0991673634337,0.019,0.191,0.21,0.0991673634337,0.019,0.191,0.21,0.0991673634337,0.019,0.191,0.21,0.0991673634337
34480000,102.840741418,150.105403782,79.2084102361,0.8165,0.2035,0.611,0.015,0.1975,0.2125,0.0744161092531,0.015,0.1975,0.2125,0.0744161092531,0.015,0.1975,0.2125,0.0744161092531,0.015,0.1975,0.2125,0.0744161092531,0.015,0.1975,0.2125,0.0744161092531,0.015,0.1975,0.2125,0.0744161092531
34480000,103.129678336,150.184473686,79.6022806614,0.807,0.1925,0.6005,0.0105,0.184,0.1945,0.057371541502,0.0105,0.184,0.1945,0.057371541502,0.0105,0.184,0.1945,0.057371541502,0.0105,0.184,0.1945,0.057371541502,0.0105,0.184,0.1945,0.057371541502,0.0105,0.184,0.1945,0.057371541502
34480000,105.293812674,150.365993115,82.757722454,0.822,0.207,0.575,0.021,0.2055,0.2265,0.103970797721,0.021,0.2055,0.2265,0.103970797721,0.021,0.2055,0.2265,0.103970797721,0.021,0.2055,0.2265,0.103970797721,0.021,0.2055,0.2265,0.103970797721,0.021,0.2055,0.2265,0.103970797721
34480000,105.979470827,150.374352589,83.7820299465,0.8185,0.208,0.5645,0.015,0.1965,0.2115,0.0760657051282,0.015,0.1965,0.2115,0.0760657051282,0.015,0.1965,0.2115,0.0760657051282,0.015,0.1965,0.2115,0.0760657051282,0.015,0.1965,0.2115,0.0760657051282,0.015,0.1965,0.2115,0.0760657051282
34480000,106.487518813,150.457091725,84.5027323562,0.764,0.193,0.5705,0.0135,0.1885,0.202,0.0720199275362,0.0135,0.1885,0.202,0.0720199275362,0.0135,0.1885,0.202,0.0720199275362,0.013,0.1885,0.2015,0.0694157608696,0.013,0.1885,0.2015,0.0694157608696,0.013,0.1885,0.2015,0.0694157608696
34600000,95.2644339426,139.151678657,73.3208115854,0.787,0.183,0.5745,0.0105,0.1785,0.189,0.0595943911161,0.0105,0.1785,0.189,0.0595943911161,0.0105,0.1785,0.189,0.0595943911161,0.0105,0.1785,0.189,0.0595943911161,0.0105,0.1785,0.189,0.0595943911161,0.0105,0.1785,0.189,0.0595943911161
34600000,95.7979725698,139.653524329,73.8701966902,0.771,0.1865,0.584,0.017,0.1835,0.2005,0.0932206380576,0.017,0.1835,0.2005,0.0932206380576,0.017,0.1835,0.2005,0.0932206380576,0.017,0.1835,0.2005,0.0932206380576,0.017,0.1835,0.2005,0.0932206380576,0.017,0.1835,0.2005,0.0932206380576
34600000,96.3014110148,139.385139401,74.759546822,0.7685,0.1855,0.5735,0.014,0.1855,0.1995,0.0756599378882,0.014,0.1855,0.1995,0.0756599378882,0.014,0.1855,0.1995,0.0756599378882,0.014,0.1855,0.1995,0.0756599378882,0.014,0.1855,0.1995,0.0756599378882,0.014,0.1855,0.1995,0.0756599378882
34600000,97.1418771659,142.433998765,74.4958163665,0.7805,0.1825,0.6075,0.0105,0.1685,0.179,0.0669482655502,0.0105,0.1675,0.178,0.0677222593583,0.0105,0.1675,0.178,0.0677222593583,0.0105,0.1675,0.178,0.0677222593583,0.0105,0.1675,0.178,0.0677222593583,0.0105,0.1675,0.178,0.0677222593583
34600000,97.22555507,140.424011538,75.6263268357,0.7515,0.1875,0.5655,0.0095,0.187,0.1965,0.0515191511387,0.0095,0.187,0.1965,0.0515191511387,0.0095,0.187,0.1965,0.0515191511387,0.0095,0.187,0.1965,0.0515191511387,0.0095,0.187,0.1965,0.0515191511387,0.0095,0.187,0.1965,0.0515191511387
34600000,97.2302282106,141.153931972,75.2683763298,0.7445,0.2475,0.528,0.0305,0.2445,0.275,0.141749856424,0.0305,0.2445,0.275,0.141749856424,0.0305,0.2445,0.275,0.141749856424,0.0305,0.2445,0.275,0.141749856424,0.0305,0.2445,0.275,0.141749856424,0.0305,0.2445,0.275,0.141749856424
34600000,97.4304250204,142.263476716,75.0138991728,0.771,0.191,0.5845,0.0205,0.181,0.2015,0.11716814888,0.0205,0.181,0.2015,0.11716814888,0.0205,0.181,0.2015,0.11716814888,0.0205,0.181,0.2015,0.11716814888,0.0205,0.181,0.2015,0.11716814888,0.0205,0.181,0.2015,0.11716814888
34600000,97.5248196327,141.462403496,75.5560277013,0.7865,0.199,0.594,0.0135,0.1905,0.204,0.0685867348231,0.0135,0.1905,0.204,0.0685867348231,0.0135,0.1905,0.204,0.0685867348231,0.0135,0.1905,0.204,0.0685867348231,0.0135,0.1905,0.204,0.0685867348231,0.0135,0.1905,0.204,0.0685867348231
34600000,97.6039536944,142.249822573,75.2810192553,0.7935,0.1875,0.604,0.011,0.1835,0.1945,0.0599061264822,0.011,0.1835,0.1945,0.0599061264822,0.011,0.1835,0.1945,0.0599061264822,0.011,0.1835,0.1945,0.0599061264822,0.011,0.1835,0.1945,0.0599061264822,0.011,0.1835,0.1945,0.0599061264822
34600000,97.7728508716,143.378186464,74.9701830752,0.767,0.173,0.5925,0.012,0.168,0.18,0.0706023079088,0.012,0.168,0.18,0.0706023079088,0.012,0.168,0.18,0.0706023079088,0.012,0.168,0.18,0.0706023079088,0.012,0.168,0.18,0.0706023079088,0.012,0.168,0.18,0.0706023079088
34600000,98.156282924,142.738344012,75.8652523802,0.7455,0.187,0.563,0.029,0.1815,0.2105,0.15827510352,0.029,0.1815,0.2105,0.15827510352,0.029,0.1615,0.1905,0.182429692892,0.029,0.1615,0.1905,0.182429692892,0.029,0.1615,0.1905,0.182429692892,0.029,0.1615,0.1905,0.182429692892
34600000,98.2063371996,143.223735802,75.6976378983,0.7685,0.186,0.584,0.01,0.17,0.18,0.0615118577075,0.01,0.17,0.18,0.0615118577075,0.01,0.17,0.18,0.0615118577075,0.01,0.17,0.18,0.0615118577075,0.01,0.17,0.18,0.0615118577075,0.01,0.17,0.18,0.0615118577075
34600000,98.8413780237,143.618534213,76.4527999291,0.76,0.1915,0.5865,0.0175,0.172,0.1895,0.102035984848,0.0175,0.172,0.1895,0.102035984848,0.0175,0.172,0.1895,0.102035984848,0.0175,0.172,0.1895,0.102035984848,0.0175,0.172,0.1895,0.102035984848,0.0175,0.172,0.1895,0.102035984848
34600000,98.9396992507,144.994166974,75.9124653893,0.789,0.185,0.5985,0.028,0.185,0.213,0.151721014493,0.028,0.185,0.213,0.151721014493,0.028,0.185,0.213,0.151721014493,0.028,0.185,0.213,0.151721014493,0.028,0.185,0.213,0.151721014493,0.028,0.185,0.213,0.151721014493
34600000,99.0945377087,143.807254682,76.7381792219,0.7555,0.1845,0.571,0.0355,0.183,0.2185,0.192889492754,0.0355,0.183,0.2185,0.192889492754,0.0355,0.183,0.2185,0.192889492754,0.0355,0.183,0.2185,0.192889492754,0.0355,0.183,0.2185,0.192889492754,0.0355,0.183,0.2185,0.192889492754
34600000,99.2354129656,144.165418522,76.7704101875,0.742,0.1895,0.5575,0.0125,0.1865,0.199,0.0665040349144,0.0125,0.1865,0.199,0.0665040349144,0.0125,0.1865,0.199,0.0665040349144,0.0125,0.1865,0.199,0.0665040349144,0.0125,0.1865,0.199,0.0665040349144,0.0125,0.1865,0.199,0.0665040349144
34600000,99.4199613433,143.449209932,77.4053370486,0.768,0.1905,0.5835,0.011,0.1825,0.1935,0.0612358836815,0.011,0.1825,0.1935,0.0612358836815,0.011,0.1825,0.1935,0.0612358836815,0.011,0.1825,0.1935,0.0612358836815,0.011,0.1825,0.1935,0.0612358836815,0.011,0.1825,0.1935,0.0612358836815
34600000,99.4558078369,143.898563452,77.2344300294,0.7605,0.1815,0.576,0.017,0.152,0.169,0.112394957983,0.017,0.152,0.169,0.112394957983,0.017,0.152,0.169,0.112394957983,0.017,0.152,0.169,0.112394957983,0.017,0.152,0.169,0.112394957983,0.017,0.152,0.169,0.112394957983
34600000,99.697879601,145.039440985,77.0270989091,0.7575,0.183,0.5745,0.016,0.1815,0.1975,0.0882387539996,0.016,0.1815,0.1975,0.0882387539996,0.016,0.1815,0.1975,0.0882387539996,0.016,0.1815,0.1975,0.0882387539996,0.016,0.1815,0.1975,0.0882387539996,0.016,0.1815,0.1975,0.0882387539996
34600000,99.8241822507,144.568197518,77.452174617,0.737,0.182,0.548,0.0135,0.161,0.1745,0.0846306106175,0.0135,0.161,0.1745,0.0846306106175,0.0135,0.161,0.1745,0.0846306106175,0.0135,0.161,0.1745,0.0846306106175,0.0135,0.149,0.1625,0.0890423753233,0.0135,0.149,0.1625,0.0890423753233
34600000,100.002220716,140.003299539,80.0016813046,0.686,0.1705,0.5095,0.009,0.1585,0.1675,0.0568885673505,0.009,0.1585,0.1675,0.0568885673505,0.009,0.1585,0.1675,0.0568885673505,0.009,0.1585,0.1675,0.0568885673505,0.009,0.1585,0.1675,0.0568885673505,0.009,0.1585,0.1675,0.0568885673505
34600000,100.396998488,145.759127072,77.7159341955,0.713,0.181,0.529,0.009,0.174,0.183,0.0516774891775,0.009,0.174,0.183,0.0516774891775,0.009,0.174,0.183,0.0516774891775,0.009,0.174,0.183,0.0516774891775,0.009,0.174,0.183,0.0516774891775,0.009,0.174,0.183,0.0516774891775
34600000,100.822474978,146.467795467,77.9998147339,0.769,0.1825,0.5815,0.016,0.1785,0.1945,0.0919407894737,0.016,0.1785,0.1945,0.0919407894737,0.016,0.1785,0.1945,0.0919407894737,0.016,0.1785,0.1945,0.0919407894737,0.016,0.1785,0.1945,0.0919407894737,0.016,0.1785,0.1945,0.0919407894737
34600000,100.908973292,145.777573336,78.4746732705,0.7475,0.1855,0.551,0.0125,0.1785,0.191,0.0701904526633,0.0125,0.1785,0.191,0.0701904526633,0.0125,0.1785,0.191,0.0701904526633,0.0125,0.1785,0.191,0.0701904526633,0.0125,0.1785,0.191,0.0701904526633,0.0125,0.1785,0.191,0.0701904526633
34600000,101.174867656,146.072689179,78.7259568946,0.7495,0.188,0.559,0.011,0.179,0.19,0.0615144764802,0.011,0.179,0.19,0.0615144764802,0.011,0.179,0.19,0.0615144764802,0.011,0.179,0.19,0.0615144764802,0.011,0.179,0.19,0.0615144764802,0.011,0.179,0.19,0.0615144764802
34600000,101.535641517,146.718041499,78.9444415253,0.764,0.185,0.575,0.013,0.1845,0.1975,0.0699404761905,0.013,0.1845,0.1975,0.0699404761905,0.013,0.1845,0.1975,0.0699404761905,0.013,0.1845,0.1975,0.0699404761905,0.013,0.1845,0.1975,0.0699404761905,0.013,0.1845,0.1975,0.0699404761905
34600000,101.830867451,147.587656421,78.9524729652,0.771,0.1845,0.583,0.014,0.158,0.172,0.088516926993,0.014,0.158,0.172,0.088516926993,0.014,0.158,0.172,0.088516926993,0.014,0.158,0.172,0.088516926993,0.014,0.158,0.172,0.088516926993,0.014,0.158,0.172,0.088516926993
34600000,102.026722105,148.768641356,78.65576248,0.7685,0.211,0.563,0.013,0.189,0.202,0.0711306042885,0.013,0.189,0.202,0.0711306042885,0.013,0.189,0.202,0.0711306042885,0.013,0.189,0.202,0.0711306042885,0.013,0.189,0.202,0.0711306042885,0.013,0.189,0.202,0.0711306042885
34600000,102.142055598,147.94422357,79.240971612,0.7685,0.1995,0.5675,0.0125,0.1965,0.209,0.0643432971014,0.0125,0.1965,0.209,0.0643432971014,0.0125,0.1965,0.209,0.0643432971014,0.0125,0.1965,0.209,0.0643432971014,0.0125,0.1965,0.209,0.0643432971014,0.0125,0.1965,0.209,0.0643432971014
34600000,102.343266065,148.483230289,79.2732839535,0.722,0.184,0.5375,0.0105,0.182,0.1925,0.0580039525692,0.0105,0.182,0.1925,0.0580039525692,0.0105,0.182,0.1925,0.0580039525692,0.0105,0.182,0.1925,0.0580039525692,0.0105,0.182,0.1925,0.0580039525692,0.0105,0.182,0.1925,0.0580039525692
34600000,102.466955569,147.993453438,79.7037066344,0.746,0.189,0.5635,0.02,0.174,0.194,0.1180102657,0.02,0.174,0.194,0.1180102657,0.02,0.174,0.194,0.1180102657,0.02,0.174,0.194,0.1180102657,0.02,0.174,0.194,0.1180102657,0.02,0.174,0.194,0.1180102657
34600000,102.487781926,148.677937257,79.3927042603,0.7325,0.1745,0.5535,0.013,0.1655,0.1785,0.0762880092829,0.013,0.1655,0.1785,0.0762880092829,0.013,0.1655,0.1785,0.0762880092829,0.013,0.1655,0.1785,0.0762880092829,0.013,0.1655,0.1785,0.0762880092829,0.013,0.1655,0.1785,0.0762880092829
34600000,102.939695881,148.28300006,80.2680437917,0.7195,0.184,0.535,0.0115,0.1745,0.186,0.0648586015434,0.0115,0.1745,0.186,0.0648586015434,0.0115,0.1745,0.186,0.0648586015434,0.0115,0.1745,0.186,0.0648586015434,0.0115,0.1745,0.186,0.0648586015434,0.0115,0.1745,0.186,0.0648586015434
34600000,103.662240176,149.434177819,80.776271354,0.7185,0.176,0.5385,0.02,0.1705,0.1905,0.117476590439,0.02,0.1705,0.1905,0.117476590439,0.02,0.1705,0.1905,0.117476590439,0.02,0.1705,0.1905,0.117476590439,0.02,0.1705,0.1905,0.117476590439,0.02,0.1705,0.1905,0.117476590439
34600000,103.69294653,146.96049359,82.0591729997,0.724,0.3735,0.5255,0.0135,0.3645,0.378,0.0539644875529,0.0135,0.3645,0.378,0.0539644875529,0.0135,0.3645,0.378,0.0539644875529,0.0135,0.3645,0.378,0.0539644875529,0.0135,0.3645,0.378,0.0539644875529,0.0135,0.3645,0.378,0.0539644875529
34600000,104.711143619,149.801513286,82.1659587859,0.7385,0.1805,0.542,0.0125,0.161,0.1735,0.0807178932179,0.0125,0.161,0.1735,0.0807178932179,0.0125,0.161,0.1735,0.0807178932179,0.0125,0.161,0.1735,0.0807178932179,0.0125,0.161,0.1735,0.0807178932179,0.0125,0.161,0.1735,0.0807178932179
34600000,104.992836786,148.37133909,83.3035856343,0.731,0.179,0.5485,0.02,0.1755,0.1955,0.113805465368,0.02,0.1755,0.1955,0.113805465368,0.02,0.1755,0.1955,0.113805465368,0.02,0.1755,0.1955,0.113805465368,0.02,0.1755,0.1955,0.113805465368,0.02,0.1755,0.1955,0.113805465368
34600000,105.213850445,149.982804985,82.8293731747,0.6815,0.18,0.5035,0.0125,0.1725,0.185,0.0721802808652,0.0125,0.1725,0.185,0.0721802808652,0.0125,0.1725,0.185,0.0721802808652,0.0125,0.1725,0.185,0.0721802808652,0.0125,0.1725,0.185,0.0721802808652,0.0125,0.1725,0.185,0.0721802808652
34640000,102.183193723,146.791362884,79.8791091431,0.7885,0.19,0.6045,0.029,0.184,0.213,0.155611824769,0.023,0.184,0.207,0.124361824769,0.023,0.184,0.207,0.124361824769,0.023,0.184,0.207,0.124361824769,0.023,0.184,0.207,0.124361824769,0.023,0.184,0.207,0.124361824769
34640000,102.455202684,146.650685249,80.3574614007,0.8185,0.2285,0.623,0.009,0.2245,0.2335,0.0407548701299,0.009,0.2245,0.2335,0.0407548701299,0.009,0.2245,0.2335,0.0407548701299,0.009,0.2245,0.2335,0.0407548701299,0.009,0.2245,0.2335,0.0407548701299,0.009,0.2245,0.2335,0.0407548701299
34640000,102.4955709,147.343851788,80.0714304553,0.786,0.1915,0.5935,0.0365,0.1845,0.221,0.194372294372,0.0365,0.1845,0.221,0.194372294372,0.0365,0.1845,0.221,0.194372294372,0.0205,0.1845,0.205,0.111038961039,0.0205,0.1845,0.205,0.111038961039,0.0205,0.1845,0.205,0.111038961039
34640000,102.686987302,145.458071642,81.3014451322,0.7745,0.183,0.597,0.009,0.1805,0.1895,0.0519615800866,0.009,0.1805,0.1895,0.0519615800866,0.009,0.1805,0.1895,0.0519615800866,0.009,0.1805,0.1895,0.0519615800866,0.009,0.1805,0.1895,0.0519615800866,0.009,0.1805,0.1895,0.0519615800866
34640000,102.76073183,148.172797161,80.0546991646,0.808,0.193,0.604,0.008,0.171,0.179,0.0468782349896,0.008,0.171,0.179,0.0468782349896,0.008,0.171,0.179,0.0468782349896,0.008,0.171,0.179,0.0468782349896,0.008,0.171,0.179,0.0468782349896,0.008,0.171,0.179,0.0468782349896
34640000,104.990391228,149.670672631,82.6502505259,0.804,0.1915,0.6145,0.012,0.1885,0.2005,0.0633234519104,0.012,0.1885,0.2005,0.0633234519104,0.012,0.1885,0.2005,0.0633234519104,0.012,0.1885,0.2005,0.0633234519104,0.012,0.1885,0.2005,0.0633234519104,0.012,0.1885,0.2005,0.0633234519104
34640000,105.198934394,149.583030976,83.0068861035,0.8045,0.185,0.613,0.0185,0.1805,0.199,0.103196640316,0.0185,0.1805,0.199,0.103196640316,0.0185,0.1805,0.199,0.103196640316,0.0185,0.1805,0.199,0.103196640316,0.0185,0.1805,0.199,0.103196640316,0.0185,0.1805,0.199,0.103196640316
34640000,105.793424198,148.979155567,84.2005585132,0.7975,0.1865,0.6155,0.0165,0.166,0.1825,0.100121697524,0.0165,0.166,0.1825,0.100121697524,0.0165,0.166,0.1825,0.100121697524,0.0165,0.166,0.1825,0.100121697524,0.0165,0.166,0.1825,0.100121697524,0.0165,0.166,0.1825,0.100121697524
34640000,105.815312801,149.171829183,84.1370546105,0.801,0.2015,0.605,0.013,0.195,0.208,0.0657514010721,0.013,0.195,0.208,0.0657514010721,0.013,0.195,0.208,0.0657514010721,0.013,0.195,0.208,0.0657514010721,0.013,0.195,0.208,0.0657514010721,0.013,0.195,0.208,0.0657514010721
34640000,106.084544618,148.779376089,84.7371288823,0.7925,0.1895,0.6055,0.028,0.1865,0.2145,0.149046266234,0.028,0.1865,0.2145,0.149046266234,0.028,0.1865,0.2145,0.149046266234,0.028,0.1865,0.2145,0.149046266234,0.028,0.1865,0.2145,0.149046266234,0.028,0.1865,0.2145,0.149046266234
34760000,100.192705335,148.169812588,76.204151709,0.738,0.18,0.555,0.0115,0.1795,0.191,0.0633808768463,0.0115,0.1795,0.191,0.0633808768463,0.0115,0.1795,0.191,0.0633808768463,0.0115,0.1795,0.191,0.0633808768463,0.0115,0.1795,0.191,0.0633808768463,0.0115,0.1795,0.191,0.0633808768463
34760000,100.908024003,148.244741151,77.2396654289,0.733,0.1845,0.5545,0.015,0.1785,0.1935,0.0860448428383,0.015,0.1775,0.1925,0.0863289337474,0.015,0.1775,0.1925,0.0863289337474,0.015,0.1775,0.1925,0.0863289337474,0.015,0.1775,0.1925,0.0863289337474,0.015,0.1775,0.1925,0.0863289337474
34760000,100.984034841,148.886911641,77.0325964412,0.7495,0.182,0.5665,0.0135,0.177,0.1905,0.0766163184641,0.0135,0.177,0.1905,0.0766163184641,0.0135,0.177,0.1905,0.0766163184641,0.0135,0.177,0.1905,0.0766163184641,0.0135,0.177,0.1905,0.0766163184641,0.0135,0.177,0.1905,0.0766163184641
34760000,101.118923053,149.297500348,77.0296344058,0.732,0.1815,0.54,0.024,0.1815,0.2055,0.133522727273,0.024,0.1815,0.2055,0.133522727273,0.024,0.1815,0.2055,0.133522727273,0.024,0.1815,0.2055,0.133522727273,0.024,0.1815,0.2055,0.133522727273,0.024,0.1815,0.2055,0.133522727273
34760000,101.395691325,149.536056139,77.3255089186,0.74,0.1775,0.5625,0.0145,0.173,0.1875,0.0831392339545,0.0145,0.173,0.1875,0.0831392339545,0.0145,0.173,0.1875,0.0831392339545,0.0145,0.173,0.1875,0.0831392339545,0.0145,0.173,0.1875,0.0831392339545,0.0145,0.173,0.1875,0.0831392339545
34760000,101.913868275,149.917635584,77.9119846212,0.7455,0.1835,0.5615,0.0425,0.1835,0.226,0.231225296443,0.0425,0.1835,0.226,0.231225296443,0.0425,0.1835,0.226,0.231225296443,0.0425,0.1835,0.226,0.231225296443,0.0425,0.1835,0.226,0.231225296443,0.0425,0.1835,0.226,0.231225296443
34760000,102.614475839,144.21039634,81.8165155888,0.7275,0.228,0.5195,0.0265,0.2105,0.237,0.12871383003,0.0265,0.2105,0.237,0.12871383003,0.0265,0.2105,0.237,0.12871383003,0.0265,0.2105,0.237,0.12871383003,0.0265,0.2105,0.237,0.12871383003,0.0265,0.2105,0.237,0.12871383003
34760000,102.784633177,148.953976371,79.6999615808,0.72,0.174,0.5405,0.016,0.1685,0.1845,0.0950081168831,0.016,0.1685,0.1845,0.0950081168831,0.016,0.1685,0.1845,0.0950081168831,0.016,0.1685,0.1845,0.0950081168831,0.016,0.1685,0.1845,0.0950081168831,0.016,0.1685,0.1845,0.0950081168831
34760000,103.210137247,150.169956785,79.7302274772,0.7135,0.176,0.5315,0.014,0.172,0.186,0.0827340089354,0.014,0.172,0.186,0.0827340089354,0.014,0.172,0.186,0.0827340089354,0.014,0.172,0.186,0.0827340089354,0.014,0.172,0.186,0.0827340089354,0.014,0.172,0.186,0.0827340089354
34760000,103.398944161,150.301335254,79.9477486142,0.7255,0.1755,0.5355,0.014,0.1565,0.1705,0.0849529332224,0.014,0.1565,0.1705,0.0849529332224,0.014,0.1565,0.1705,0.0849529332224,0.014,0.1565,0.1705,0.0849529332224,0.014,0.1565,0.1705,0.0849529332224,0.014,0.1565,0.1705,0.0849529332224
34760000,103.810558858,150.272962825,80.5793568749,0.7085,0.194,0.522,0.012,0.1805,0.1925,0.0641309155241,0.012,0.1805,0.1925,0.0641309155241,0.012,0.1805,0.1925,0.0641309155241,0.012,0.1805,0.1925,0.0641309155241,0.012,0.1805,0.1925,0.0641309155241,0.012,0.1805,0.1925,0.0641309155241
34760000,104.593679993,147.556767681,83.1121361484,0.6925,0.1875,0.5225,0.015,0.1865,0.2015,0.0825839920949,0.015,0.1865,0.2015,0.0825839920949,0.015,0.1865,0.2015,0.0825839920949,0.015,0.1865,0.2015,0.0825839920949,0.015,0.1865,0.2015,0.0825839920949,0.015,0.1865,0.2015,0.0825839920949
34760000,104.991026485,145.396687857,84.7881957998,0.7265,0.192,0.517,0.022,0.185,0.207,0.117406031469,0.022,0.185,0.207,0.117406031469,0.022,0.185,0.207,0.117406031469,0.022,0.185,0.207,0.117406031469,0.022,0.185,0.207,0.117406031469,0.022,0.185,0.207,0.117406031469
34760000,105.107826795,149.093317303,83.1150815412,0.7225,0.179,0.547,0.019,0.1755,0.1945,0.107046395633,0.019,0.1755,0.1945,0.107046395633,0.019,0.1755,0.1945,0.107046395633,0.019,0.1755,0.1945,0.107046395633,0.019,0.1755,0.1945,0.107046395633,0.019,0.1755,0.1945,0.107046395633
34760000,105.562492665,149.683711063,83.5018834659,0.723,0.184,0.544,0.0165,0.172,0.1885,0.0954169019386,0.0165,0.172,0.1885,0.0954169019386,0.0165,0.172,0.1885,0.0954169019386,0.0165,0.172,0.1885,0.0954169019386,0.0165,0.172,0.1885,0.0954169019386,0.0165,0.172,0.1885,0.0954169019386
34760000,105.835411589,149.635407041,83.935413863,0.72,0.176,0.552,0.032,0.152,0.184,0.210526315789,0.032,0.152,0.184,0.210526315789,0.032,0.152,0.184,0.210526315789,0.032,0.152,0.184,0.210526315789,0.032,0.152,0.184,0.210526315789,0.032,0.152,0.184,0.210526315789
34760000,105.896453921,147.429311984,85.1300248894,0.7235,0.197,0.5295,0.015,0.1915,0.2065,0.0784918478261,0.015,0.1915,0.2065,0.0784918478261,0.015,0.1915,0.2065,0.0784918478261,0.015,0.1915,0.2065,0.0784918478261,0.015,0.1915,0.2065,0.0784918478261,0.015,0.1915,0.2065,0.0784918478261
34760000,106.267276633,146.043920694,86.378954603,0.7035,0.197,0.5045,0.0105,0.1895,0.2,0.0553668478261,0.0105,0.1895,0.2,0.0553668478261,0.0105,0.1895,0.2,0.0553668478261,0.0105,0.1895,0.2,0.0553668478261,0.0105,0.1895,0.2,0.0553668478261,0.0105,0.1895,0.2,0.0553668478261
34760000,106.278613393,147.227415803,85.8042121873,0.736,0.1965,0.5435,0.0255,0.185,0.2105,0.13256006865,0.0255,0.185,0.2105,0.13256006865,0.0255,0.185,0.2105,0.13256006865,0.0255,0.185,0.2105,0.13256006865,0.0255,0.185,0.2105,0.13256006865,0.0255,0.185,0.2105,0.13256006865
34760000,106.335672728,150.452515384,84.2772514001,0.7065,0.1835,0.536,0.0125,0.1735,0.186,0.0727592649468,0.0125,0.1735,0.186,0.0727592649468,0.0125,0.1735,0.186,0.0727592649468,0.0125,0.1735,0.186,0.0727592649468,0.0125,0.1735,0.186,0.0727592649468,0.0125,0.1735,0.186,0.0727592649468
34760000,106.444502366,145.802486762,86.7655101686,0.7045,0.217,0.4775,0.008,0.2145,0.2225,0.0375538793103,0.008,0.2145,0.2225,0.0375538793103,0.008,0.2145,0.2225,0.0375538793103,0.008,0.2145,0.2225,0.0375538793103,0.008,0.2145,0.2225,0.0375538793103,0.008,0.2145,0.2225,0.0375538793103
34760000,106.522577394,149.830900589,84.8684157964,0.712,0.1725,0.5375,0.025,0.168,0.193,0.149131474932,0.025,0.168,0.193,0.149131474932,0.025,0.168,0.193,0.149131474932,0.025,0.168,0.193,0.149131474932,0.025,0.168,0.193,0.149131474932,0.025,0.168,0.193,0.149131474932
34760000,106.529430955,147.742604222,85.9228443206,0.7235,0.2,0.5125,0.0285,0.197,0.2255,0.143410973085,0.0285,0.197,0.2255,0.143410973085,0.0285,0.197,0.2255,0.143410973085,0.0285,0.197,0.2255,0.143410973085,0.0285,0.197,0.2255,0.143410973085,0.0285,0.197,0.2255,0.143410973085
34760000,106.880010466,146.068271862,87.2858797686,0.698,0.2455,0.4615,0.0165,0.2445,0.261,0.0636498205742,0.0165,0.2445,0.261,0.0636498205742,0.0165,0.2445,0.261,0.0636498205742,0.0165,0.2445,0.261,0.0636498205742,0.0165,0.2445,0.261,0.0636498205742,0.0165,0.2445,0.261,0.0636498205742
34760000,106.986815132,148.648187243,86.1561290759,0.7315,0.201,0.534,0.0085,0.2005,0.209,0.0424038461538,0.0085,0.2005,0.209,0.0424038461538,0.0085,0.2005,0.209,0.0424038461538,0.0085,0.2005,0.209,0.0424038461538,0.0085,0.2005,0.209,0.0424038461538,0.0085,0.2005,0.209,0.0424038461538
34760000,107.239846001,147.694719646,87.0124091787,0.728,0.272,0.506,0.0115,0.269,0.2805,0.0509178316824,0.0115,0.269,0.2805,0.0509178316824,0.0115,0.269,0.2805,0.0509178316824,0.0115,0.269,0.2805,0.0509178316824,0.0115,0.269,0.2805,0.0509178316824,0.0115,0.269,0.2805,0.0509178316824
34760000,107.489020348,150.120141289,86.1734598774,0.762,0.1825,0.5825,0.0085,0.175,0.1835,0.0484542631282,0.0085,0.175,0.1835,0.0484542631282,0.0085,0.175,0.1835,0.0484542631282,0.0085,0.175,0.1835,0.0484542631282,0.0085,0.175,0.1835,0.0484542631282,0.0085,0.175,0.1835,0.0484542631282
34760000,107.863875996,150.055722898,86.7679525458,0.7615,0.1785,0.5805,0.011,0.1705,0.1815,0.0643257105214,0.011,0.1705,0.1815,0.0643257105214,0.011,0.1705,0.1815,0.0643257105214,0.011,0.1705,0.1815,0.0643257105214,0.011,0.1705,0.1815,0.0643257105214,0.011,0.1705,0.1815,0.0643257105214
34760000,107.882856326,150.211260198,86.7186543904,0.7575,0.18,0.576,0.025,0.173,0.198,0.144024834814,0.025,0.173,0.198,0.144024834814,0.025,0.173,0.198,0.144024834814,0.025,0.173,0.198,0.144024834814,0.025,0.173,0.198,0.144024834814,0.025,0.173,0.198,0.144024834814
34760000,108.112076447,150.090738685,87.1227453272,0.7185,0.173,0.5365,0.0145,0.173,0.1875,0.084016092603,0.0145,0.173,0.1875,0.084016092603,0.0145,0.173,0.1875,0.084016092603,0.0145,0.173,0.1875,0.084016092603,0.0145,0.173,0.1875,0.084016092603,0.0145,0.173,0.1875,0.084016092603
34760000,108.249186614,150.143346455,87.3021066942,0.709,0.176,0.5315,0.0135,0.1655,0.179,0.0812044315334,0.0135,0.1655,0.179,0.0812044315334,0.0135,0.1655,0.179,0.0812044315334,0.0135,0.1655,0.179,0.0812044315334,0.0135,0.1655,0.179,0.0812044315334,0.0135,0.1655,0.179,0.0812044315334
34760000,108.285051536,150.272238113,87.291458247,0.6875,0.1745,0.512,0.0175,0.1745,0.192,0.100243506494,0.0175,0.1745,0.192,0.100243506494,0.0175,0.1745,0.192,0.100243506494,0.0175,0.1745,0.192,0.100243506494,0.0175,0.1745,0.192,0.100243506494,0.0175,0.1745,0.192,0.100243506494
34760000,108.321369247,150.711879372,87.126114184,0.6585,0.185,0.5035,0.013,0.181,0.194,0.0745700714236,0.013,0.181,0.194,0.0745700714236,0.013,0.181,0.194,0.0745700714236,0.013,0.181,0.194,0.0745700714236,0.013,0.181,0.194,0.0745700714236,0.013,0.181,0.194,0.0745700714236
34760000,108.362795348,147.860639862,88.6138730911,0.6775,0.1755,0.489,0.019,0.171,0.19,0.106993570884,0.019,0.171,0.19,0.106993570884,0.019,0.171,0.19,0.106993570884,0.019,0.171,0.19,0.106993570884,0.019,0.171,0.19,0.106993570884,0.019,0.171,0.19,0.106993570884
34760000,108.418030913,150.696422158,87.2788352898,0.6235,0.1615,0.4165,0.0165,0.1615,0.178,0.101624465576,0.0165,0.1615,0.178,0.101624465576,0.0165,0.1615,0.178,0.101624465576,0.0165,0.1615,0.178,0.101624465576,0.0165,0.1615,0.178,0.101624465576,0.0165,0.1615,0.178,0.101624465576
34760000,108.481829422,150.218476246,87.6135060103,0.7335,0.176,0.5585,0.013,0.1595,0.1725,0.0803133753501,0.013,0.1595,0.1725,0.0803133753501,0.013,0.1595,0.1725,0.0803133753501,0.013,0.1595,0.1725,0.0803133753501,0.013,0.1595,0.1725,0.0803133753501,0.013,0.1595,0.1725,0.0803133753501
34760000,108.832286942,149.712931212,88.3919648076,0.723,0.1875,0.5305,0.0175,0.1825,0.2,0.0963644598155,0.0175,0.1825,0.2,0.0963644598155,0.0175,0.1825,0.2,0.0963644598155,0.0175,0.1825,0.2,0.0963644598155,0.0175,0.1825,0.2,0.0963644598155,0.0175,0.1825,0.2,0.0963644598155
34760000,108.935673438,150.203032531,88.3019938914,0.76,0.178,0.5805,0.014,0.1695,0.1835,0.0831321912736,0.014,0.1695,0.1835,0.0831321912736,0.014,0.1695,0.1835,0.0831321912736,0.014,0.1695,0.1835,0.0831321912736,0.014,0.1695,0.1835,0.0831321912736,0.014,0.1695,0.1835,0.0831321912736
34760000,109.134688904,150.078238231,88.6629142396,0.7505,0.182,0.5715,0.0085,0.178,0.1865,0.0478338880799,0.0085,0.178,0.1865,0.0478338880799,0.0085,0.178,0.1865,0.0478338880799,0.0085,0.178,0.1865,0.0478338880799,0.0085,0.178,0.1865,0.0478338880799,0.0085,0.178,0.1865,0.0478338880799
34760000,109.366189173,150.188761103,88.9549032083,0.7175,0.187,0.5425,0.0205,0.1785,0.199,0.118656996164,0.0205,0.1785,0.199,0.118656996164,0.0205,0.1785,0.199,0.118656996164,0.0205,0.1785,0.199,0.118656996164,0.0205,0.1785,0.199,0.118656996164,0.0205,0.1785,0.199,0.118656996164
34760000,109.552224218,149.887023436,89.384824609,0.7215,0.2475,0.5275,0.0195,0.243,0.2625,0.0947082893863,0.0195,0.243,0.2625,0.0947082893863,0.0195,0.243,0.2625,0.0947082893863,0.0195,0.243,0.2625,0.0947082893863,0.0195,0.243,0.2625,0.0947082893863,0.0195,0.243,0.2625,0.0947082893863
34760000,109.58461218,149.422370067,89.6657332369,0.7095,0.198,0.507,0.0105,0.195,0.2055,0.0549621212121,0.0105,0.195,0.2055,0.0549621212121,0.0105,0.195,0.2055,0.0549621212121,0.0105,0.195,0.2055,0.0549621212121,0.0105,0.195,0.2055,0.0549621212121,0.0105,0.195,0.2055,0.0549621212121
34760000,109.608414345,149.394464339,89.7153893481,0.6945,0.2155,0.4785,0.0125,0.195,0.2075,0.0656630333293,0.0125,0.195,0.2075,0.0656630333293,0.0125,0.195,0.2075,0.0656630333293,0.0125,0.195,0.2075,0.0656630333293,0.0125,0.195,0.2075,0.0656630333293,0.0125,0.195,0.2075,0.0656630333293
34760000,110.3642192,150.112985129,90.4898362362,0.7425,0.185,0.574,0.009,0.158,0.167,0.0565044858523,0.009,0.158,0.167,0.0565044858523,0.009,0.158,0.167,0.0565044858523,0.009,0.158,0.167,0.0565044858523,0.009,0.158,0.167,0.0565044858523,0.009,0.158,0.167,0.0565044858523
34760000,110.824900067,149.848608369,91.3130459167,0.704,0.19,0.5085,0.013,0.185,0.198,0.0723106060606,0.013,0.185,0.198,0.0723106060606,0.013,0.185,0.198,0.0723106060606,0.013,0.185,0.198,0.0723106060606,0.013,0.185,0.198,0.0723106060606,0.013,0.185,0.198,0.0723106060606
34760000,111.101500414,149.121778824,92.0913612094,0.6765,0.19,0.482,0.012,0.175,0.187,0.0723294154358,0.012,0.175,0.187,0.0723294154358,0.012,0.175,0.187,0.0723294154358,0.012,0.175,0.187,0.0723294154358,0.012,0.175,0.187,0.0723294154358,0.012,0.175,0.187,0.0723294154358
34800000,103.200335204,146.459689526,81.5706580428,0.6835,0.176,0.49,0.022,0.157,0.179,0.127981582126,0.022,0.157,0.179,0.127981582126,0.022,0.157,0.179,0.127981582126,0.022,0.157,0.179,0.127981582126,0.022,0.157,0.179,0.127981582126,0.022,0.157,0.179,0.127981582126
34800000,103.542508699,147.799754561,81.4138857676,0.686,0.18,0.508,0.012,0.174,0.186,0.0687229437229,0.012,0.174,0.186,0.0687229437229,0.012,0.174,0.186,0.0687229437229,0.012,0.174,0.186,0.0687229437229,0.012,0.174,0.186,0.0687229437229,0.012,0.174,0.186,0.0687229437229
34800000,103.953263768,145.167048121,83.3463715921,0.7005,0.219,0.496,0.013,0.215,0.228,0.0680264210427,0.013,0.215,0.228,0.0680264210427,0.013,0.215,0.228,0.0680264210427,0.013,0.215,0.228,0.0680264210427,0.013,0.215,0.228,0.0680264210427,0.013,0.215,0.228,0.0680264210427
34800000,104.642351051,148.863445306,82.5318039239,0.68,0.1725,0.5005,0.012,0.152,0.164,0.0779419109368,0.012,0.152,0.164,0.0779419109368,0.012,0.152,0.164,0.0779419109368,0.012,0.152,0.164,0.0779419109368,0.012,0.152,0.164,0.0779419109368,0.012,0.152,0.164,0.0779419109368
34800000,104.977343342,146.475236274,84.2283968761,0.649,0.1815,0.397,0.0095,0.1815,0.191,0.0528487318841,0.0095,0.1815,0.191,0.0528487318841,0.0095,0.1815,0.191,0.0528487318841,0.0095,0.1815,0.191,0.0528487318841,0.0095,0.1815,0.191,0.0528487318841,0.0095,0.1815,0.191,0.0528487318841
34800000,105.331077115,146.81868928,84.5872710325,0.7005,0.21,0.503,0.012,0.209,0.221,0.057858201581,0.012,0.209,0.221,0.057858201581,0.012,0.209,0.221,0.057858201581,0.012,0.209,0.221,0.057858201581,0.012,0.209,0.221,0.057858201581,0.012,0.209,0.221,0.057858201581
34800000,106.084382319,147.366325769,85.4434105942,0.6655,0.186,0.4865,0.009,0.1485,0.1575,0.0626823512586,0.009,0.1485,0.1575,0.0626823512586,0.009,0.1485,0.1575,0.0626823512586,0.009,0.1485,0.1575,0.0626823512586,0.009,0.1485,0.1575,0.0626823512586,0.009,0.1485,0.1575,0.0626823512586
34800000,106.337834791,149.009718227,85.0018930726,0.674,0.215,0.386,0.014,0.2115,0.2255,0.0685408972637,0.014,0.2115,0.2255,0.0685408972637,0.014,0.2115,0.2255,0.0685408972637,0.014,0.2115,0.2255,0.0685408972637,0.014,0.2115,0.2255,0.0685408972637,0.014,0.2115,0.2255,0.0685408972637
34800000,106.999235029,148.547161969,86.2252715588,0.6485,0.1915,0.4645,0.01,0.191,0.201,0.0547023809524,0.01,0.191,0.201,0.0547023809524,0.01,0.191,0.201,0.0547023809524,0.01,0.191,0.201,0.0547023809524,0.01,0.191,0.201,0.0547023809524,0.01,0.191,0.201,0.0547023809524
34800000,107.076171018,150.098350918,85.5650810682,0.6685,0.226,0.4605,0.009,0.2185,0.2275,0.0460826597125,0.009,0.2185,0.2275,0.0460826597125,0.009,0.2185,0.2275,0.0460826597125,0.009,0.2185,0.2275,0.0460826597125,0.009,0.2185,0.2275,0.0460826597125,0.009,0.2185,0.2275,0.0460826597125
34800000,107.207365255,148.305323325,86.6583862195,0.672,0.209,0.4785,0.023,0.1875,0.2105,0.12696995034,0.023,0.1875,0.2105,0.12696995034,0.023,0.1875,0.2105,0.12696995034,0.023,0.1875,0.2105,0.12696995034,0.023,0.1875,0.2105,0.12696995034,0.023,0.1875,0.2105,0.12696995034
34800000,108.205978756,150.311363327,87.1532864704,0.6425,0.205,0.468,0.014,0.202,0.216,0.0724613163343,0.014,0.202,0.216,0.0724613163343,0.014,0.202,0.216,0.0724613163343,0.014,0.202,0.216,0.0724613163343,0.014,0.202,0.216,0.0724613163343,0.014,0.202,0.216,0.0724613163343
34800000,109.145701252,150.155364875,88.6408694402,0.648,0.193,0.4265,0.0145,0.171,0.1855,0.0911816142794,0.0145,0.171,0.1855,0.0911816142794,0.0145,0.171,0.1855,0.0911816142794,0.0145,0.171,0.1855,0.0911816142794,0.0145,0.171,0.1855,0.0911816142794,0.0145,0.171,0.1855,0.0911816142794
34800000,109.570530203,149.405020157,89.6532852266,0.655,0.2625,0.465,0.01,0.252,0.262,0.0444298455168,0.01,0.252,0.262,0.0444298455168,0.01,0.252,0.262,0.0444298455168,0.01,0.252,0.262,0.0444298455168,0.01,0.252,0.262,0.0444298455168,0.01,0.252,0.262,0.0444298455168
34840000,91.0233579315,129.789995413,71.6400391905,0.704,0.172,0.532,0.01,0.167,0.177,0.0594124013242,0.01,0.167,0.177,0.0594124013242,0.01,0.167,0.177,0.0594124013242,0.01,0.167,0.177,0.0594124013242,0.01,0.167,0.177,0.0594124013242,0.01,0.167,0.177,0.0594124013242
34840000,91.6538169295,128.23702286,73.3622139645,0.692,0.1805,0.5165,0.0205,0.1755,0.196,0.116452352472,0.0205,0.1755,0.196,0.116452352472,0.0205,0.1755,0.196,0.116452352472,0.0205,0.1755,0.196,0.116452352472,0.0205,0.1755,0.196,0.116452352472,0.0205,0.1755,0.196,0.116452352472
34840000,92.2066021093,130.28231727,73.1687445289,0.693,0.17,0.518,0.013,0.1625,0.1755,0.0803841991342,0.013,0.1625,0.1755,0.0803841991342,0.013,0.1625,0.1755,0.0803841991342,0.013,0.1625,0.1755,0.0803841991342,0.013,0.1625,0.1755,0.0803841991342,0.013,0.1625,0.1755,0.0803841991342
34840000,92.2836534114,131.569078044,72.6409410952,0.687,0.175,0.5185,0.017,0.174,0.191,0.0974453178401,0.017,0.174,0.191,0.0974453178401,0.017,0.174,0.191,0.0974453178401,0.017,0.174,0.191,0.0974453178401,0.017,0.174,0.191,0.0974453178401,0.017,0.174,0.191,0.0974453178401
34840000,92.458497213,130.20949361,73.5829990143,0.686,0.2165,0.5075,0.0145,0.213,0.2275,0.0809948979592,0.0145,0.213,0.2275,0.0809948979592,0.0145,0.213,0.2275,0.0809948979592,0.0145,0.213,0.2275,0.0809948979592,0.0145,0.213,0.2275,0.0809948979592,0.0145,0.213,0.2275,0.0809948979592
34840000,93.2692711585,130.818426464,74.4946935057,0.676,0.175,0.5,0.012,0.1715,0.1835,0.0694742042854,0.012,0.1715,0.1835,0.0694742042854,0.012,0.1715,0.1835,0.0694742042854,0.012,0.1715,0.1835,0.0694742042854,0.012,0.1715,0.1835,0.0694742042854,0.012,0.1675,0.1795,0.0708630931743
34840000,93.6436420346,130.587128105,75.1718989994,0.678,0.1805,0.506,0.012,0.176,0.188,0.0682053453793,0.012,0.176,0.188,0.0682053453793,0.012,0.176,0.188,0.0682053453793,0.012,0.176,0.188,0.0682053453793,0.012,0.176,0.188,0.0682053453793,0.012,0.176,0.188,0.0682053453793
34840000,94.094751328,132.148000185,75.0681268992,0.6845,0.175,0.509,0.0155,0.17,0.1855,0.0940205627706,0.0155,0.17,0.1855,0.0940205627706,0.0155,0.169,0.1845,0.0943046536797,0.0155,0.169,0.1845,0.0943046536797,0.0155,0.169,0.1845,0.0943046536797,0.0155,0.169,0.1845,0.0943046536797
34840000,94.3045435656,135.558059045,73.6777858259,0.6935,0.1915,0.5255,0.0175,0.187,0.2045,0.102930609181,0.0175,0.187,0.2045,0.102930609181,0.0175,0.187,0.2045,0.102930609181,0.0175,0.187,0.2045,0.102930609181,0.0175,0.187,0.2045,0.102930609181,0.0175,0.187,0.2045,0.102930609181
34840000,94.4452638071,136.07356295,73.6311142356,0.6875,0.172,0.5175,0.0175,0.145,0.1625,0.121590909091,0.0175,0.145,0.1625,0.121590909091,0.0175,0.145,0.1625,0.121590909091,0.0175,0.145,0.1625,0.121590909091,0.0175,0.145,0.1625,0.121590909091,0.0175,0.145,0.1625,0.121590909091
34840000,94.8438045713,131.429128927,76.5511423933,0.64,0.172,0.466,0.012,0.168,0.18,0.0728525860105,0.012,0.168,0.18,0.0728525860105,0.012,0.168,0.18,0.0728525860105,0.012,0.168,0.18,0.0728525860105,0.012,0.168,0.18,0.0728525860105,0.012,0.168,0.18,0.0728525860105
34840000,95.2255656146,133.99913095,75.8387829467,0.682,0.177,0.502,0.023,0.175,0.198,0.130324989021,0.023,0.175,0.198,0.130324989021,0.015,0.175,0.19,0.0848704435661,0.015,0.175,0.19,0.0848704435661,0.015,0.175,0.19,0.0848704435661,0.015,0.175,0.19,0.0848704435661
34840000,95.6008418373,137.689160673,74.5566824194,0.6775,0.1755,0.506,0.0145,0.1585,0.173,0.0929311916154,0.0145,0.1585,0.173,0.0929311916154,0.0145,0.1585,0.173,0.0929311916154,0.0145,0.1585,0.173,0.0929311916154,0.0145,0.1585,0.173,0.0929311916154,0.0145,0.1585,0.173,0.0929311916154
34840000,95.6523637122,134.358388412,76.2993513621,0.693,0.2935,0.4165,0.0145,0.293,0.3075,0.0718448218448,0.0145,0.293,0.3075,0.0718448218448,0.0145,0.293,0.3075,0.0718448218448,0.0145,0.293,0.3075,0.0718448218448,0.0145,0.293,0.3075,0.0718448218448,0.0145,0.293,0.3075,0.0718448218448
34840000,95.7574961624,137.69102987,74.7907293089,0.6715,0.177,0.496,0.0195,0.165,0.1845,0.121213978622,0.0195,0.165,0.1845,0.121213978622,0.0195,0.165,0.1845,0.121213978622,0.0195,0.165,0.1845,0.121213978622,0.0195,0.165,0.1845,0.121213978622,0.0195,0.165,0.1845,0.121213978622
34840000,96.085803832,137.691873831,75.2827688323,0.663,0.175,0.496,0.01,0.174,0.184,0.0587121212121,0.01,0.174,0.184,0.0587121212121,0.01,0.174,0.184,0.0587121212121,0.01,0.174,0.184,0.0587121212121,0.01,0.174,0.184,0.0587121212121,0.01,0.174,0.184,0.0587121212121
34840000,96.1347900687,137.781466911,75.3114516474,0.6665,0.1685,0.499,0.0245,0.162,0.1865,0.152380952381,0.0245,0.162,0.1865,0.152380952381,0.0245,0.162,0.1865,0.152380952381,0.0245,0.162,0.1865,0.152380952381,0.0245,0.162,0.1865,0.152380952381,0.0245,0.162,0.1865,0.152380952381
34840000,96.2184168731,138.080560991,75.2873448143,0.698,0.1735,0.5245,0.021,0.156,0.177,0.134518667607,0.021,0.156,0.177,0.134518667607,0.021,0.156,0.177,0.134518667607,0.021,0.156,0.177,0.134518667607,0.021,0.156,0.177,0.134518667607,0.021,0.156,0.177,0.134518667607
34840000,96.3267470325,133.588630823,77.6958051371,0.6755,0.1705,0.4065,0.0155,0.148,0.1635,0.105800653595,0.0155,0.148,0.1635,0.105800653595,0.0155,0.148,0.1635,0.105800653595,0.0155,0.148,0.1635,0.105800653595,0.0155,0.148,0.1635,0.105800653595,0.0155,0.148,0.1635,0.105800653595
34840000,96.486015503,133.15192289,78.1530618094,0.651,0.243,0.467,0.0235,0.2395,0.263,0.105593878809,0.0235,0.2395,0.263,0.105593878809,0.0235,0.2395,0.263,0.105593878809,0.0235,0.2395,0.263,0.105593878809,0.0235,0.2395,0.263,0.105593878809,0.0235,0.2395,0.263,0.105593878809
34840000,96.5785096662,132.73359328,78.5009678593,0.6435,0.186,0.4625,0.009,0.1855,0.1945,0.048465497365,0.009,0.1855,0.1945,0.048465497365,0.009,0.1855,0.1945,0.048465497365,0.009,0.1855,0.1945,0.048465497365,0.009,0.1855,0.1945,0.048465497365,0.009,0.1855,0.1945,0.048465497365
34840000,96.6180517797,137.757873771,76.0481407842,0.6685,0.1725,0.4985,0.0085,0.167,0.1755,0.0511061242679,0.0085,0.167,0.1755,0.0511061242679,0.0085,0.167,0.1755,0.0511061242679,0.0085,0.167,0.1755,0.0511061242679,0.0085,0.167,0.1755,0.0511061242679,0.0085,0.167,0.1755,0.0511061242679
34840000,96.9014985989,137.875452178,76.4145218096,0.667,0.177,0.5,0.01,0.1745,0.1845,0.0568332577986,0.01,0.1745,0.1845,0.0568332577986,0.01,0.1745,0.1845,0.0568332577986,0.01,0.1745,0.1845,0.0568332577986,0.01,0.1745,0.1845,0.0568332577986,0.01,0.1745,0.1845,0.0568332577986
34840000,97.5922875515,139.898739748,76.4390614533,0.6665,0.172,0.497,0.017,0.1595,0.1765,0.109198422192,0.017,0.1595,0.1765,0.109198422192,0.017,0.1595,0.1765,0.109198422192,0.017,0.1595,0.1765,0.109198422192,0.017,0.1595,0.1765,0.109198422192,0.017,0.1595,0.1765,0.109198422192
34840000,98.0520288767,140.086004875,77.0350408777,0.67,0.1735,0.4975,0.0155,0.1715,0.187,0.0904220779221,0.0155,0.1715,0.187,0.0904220779221,0.0155,0.1715,0.187,0.0904220779221,0.0155,0.1715,0.187,0.0904220779221,0.0155,0.1715,0.187,0.0904220779221,0.0155,0.1715,0.187,0.0904220779221
34840000,99.3037985756,143.82959803,77.0408988485,0.6645,0.1675,0.5005,0.0165,0.162,0.1785,0.102059837093,0.0165,0.162,0.1785,0.102059837093,0.0165,0.162,0.1785,0.102059837093,0.0165,0.162,0.1785,0.102059837093,0.0125,0.162,0.1745,0.0782503132832,0.0125,0.162,0.1745,0.0782503132832
34840000,99.5772868831,142.023597601,78.3541315242,0.7,0.193,0.5185,0.014,0.186,0.2,0.0755942329085,0.014,0.186,0.2,0.0755942329085,0.014,0.186,0.2,0.0755942329085,0.014,0.186,0.2,0.0755942329085,0.014,0.186,0.2,0.0755942329085,0.014,0.186,0.2,0.0755942329085
34840000,99.7299548283,144.583633247,77.3031156191,0.679,0.1655,0.514,0.012,0.162,0.174,0.0734243697479,0.012,0.162,0.174,0.0734243697479,0.012,0.162,0.174,0.0734243697479,0.012,0.162,0.174,0.0734243697479,0.008,0.162,0.17,0.0496148459384,0.008,0.162,0.17,0.0496148459384
34840000,99.7655378384,144.001116975,77.64774827,0.668,0.168,0.504,0.013,0.161,0.174,0.0804786587681,0.013,0.161,0.174,0.0804786587681,0.013,0.161,0.174,0.0804786587681,0.013,0.161,0.174,0.0804786587681,0.013,0.161,0.174,0.0804786587681,0.013,0.161,0.174,0.0804786587681
34840000,100.173753373,143.034839482,78.7432103181,0.6745,0.179,0.4945,0.0135,0.168,0.1815,0.0790513833992,0.0135,0.168,0.1815,0.0790513833992,0.0135,0.168,0.1815,0.0790513833992,0.0135,0.168,0.1815,0.0790513833992,0.0135,0.168,0.1815,0.0790513833992,0.0135,0.168,0.1815,0.0790513833992
34840000,100.879386589,145.624320589,78.5069195894,0.679,0.168,0.4405,0.016,0.164,0.18,0.0965336134454,0.016,0.164,0.18,0.0965336134454,0.016,0.164,0.18,0.0965336134454,0.016,0.164,0.18,0.0965336134454,0.016,0.164,0.18,0.0965336134454,0.016,0.164,0.18,0.0965336134454
34840000,101.031161562,144.385842593,79.3538210469,0.6585,0.1765,0.4805,0.0275,0.173,0.2005,0.15503807072,0.0275,0.173,0.2005,0.15503807072,0.0275,0.173,0.2005,0.15503807072,0.0275,0.173,0.2005,0.15503807072,0.0275,0.173,0.2005,0.15503807072,0.0275,0.173,0.2005,0.15503807072
34840000,101.325168718,143.774619049,80.1004435525,0.647,0.165,0.4855,0.021,0.1565,0.1775,0.136066729323,0.021,0.1565,0.1775,0.136066729323,0.021,0.1565,0.1775,0.136066729323,0.021,0.1565,0.1775,0.136066729323,0.021,0.1565,0.1775,0.136066729323,0.021,0.1565,0.1775,0.136066729323
34840000,101.673871509,147.206172799,78.9077208645,0.669,0.1665,0.4965,0.0165,0.1615,0.178,0.103803542948,0.0165,0.1615,0.178,0.103803542948,0.0165,0.1615,0.178,0.103803542948,0.0165,0.1615,0.178,0.103803542948,0.0165,0.1615,0.178,0.103803542948,0.0165,0.1615,0.178,0.103803542948
34840000,101.694486124,145.815129249,79.6341645609,0.639,0.2845,0.4395,0.013,0.281,0.294,0.052436045235,0.013,0.281,0.294,0.052436045235,0.013,0.281,0.294,0.052436045235,0.013,0.281,0.294,0.052436045235,0.013,0.281,0.294,0.052436045235,0.013,0.281,0.294,0.052436045235
34840000,102.601066432,147.810036995,79.9965811506,0.6355,0.1625,0.466,0.0105,0.147,0.1575,0.0735669773982,0.0105,0.147,0.1575,0.0735669773982,0.0105,0.147,0.1575,0.0735669773982,0.0105,0.147,0.1575,0.0735669773982,0.0105,0.147,0.1575,0.0735669773982,0.0105,0.147,0.1575,0.0735669773982
34840000,102.652470089,146.909639925,80.5238851709,0.6665,0.2445,0.461,0.0505,0.23,0.2805,0.210097254005,0.0505,0.23,0.2805,0.210097254005,0.0505,0.23,0.2805,0.210097254005,0.0505,0.23,0.2805,0.210097254005,0.0505,0.23,0.2805,0.210097254005,0.0505,0.23,0.2805,0.210097254005
34840000,102.773660058,147.714457582,80.3032612957,0.647,0.1605,0.485,0.02,0.154,0.174,0.131490490933,0.02,0.154,0.174,0.131490490933,0.02,0.154,0.174,0.131490490933,0.02,0.154,0.174,0.131490490933,0.02,0.154,0.174,0.131490490933,0.02,0.154,0.174,0.131490490933
34840000,102.906976844,147.618681282,80.5511246255,0.6615,0.167,0.481,0.0145,0.163,0.1775,0.0889111984507,0.0145,0.163,0.1775,0.0889111984507,0.0145,0.163,0.1775,0.0889111984507,0.0145,0.163,0.1775,0.0889111984507,0.0145,0.163,0.1775,0.0889111984507,0.0145,0.163,0.1775,0.0889111984507
34840000,103.188973692,148.160230897,80.7033450892,0.658,0.1655,0.4865,0.0115,0.1585,0.17,0.0739459325397,0.0115,0.1585,0.17,0.0739459325397,0.0115,0.1585,0.17,0.0739459325397,0.0115,0.1585,0.17,0.0739459325397,0.0115,0.1585,0.17,0.0739459325397,0.0115,0.1585,0.17,0.0739459325397
34840000,103.499733559,149.49105761,80.5040715332,0.6705,0.214,0.4905,0.0185,0.201,0.2195,0.110179375804,0.0185,0.201,0.2195,0.110179375804,0.0185,0.201,0.2195,0.110179375804,0.0185,0.201,0.2195,0.110179375804,0.0185,0.201,0.2195,0.110179375804,0.0185,0.201,0.2195,0.110179375804
34840000,103.981320162,149.639571332,81.1521945769,0.646,0.179,0.459,0.0245,0.177,0.2015,0.131994047619,0.0245,0.177,0.2015,0.131994047619,0.0245,0.177,0.2015,0.131994047619,0.0245,0.177,0.2015,0.131994047619,0.0245,0.173,0.1975,0.133382936508,0.0245,0.173,0.1975,0.133382936508
34840000,105.44929656,150.543501089,82.9021942951,0.667,0.149,0.497,0.0165,0.14,0.1565,0.119313197767,0.0165,0.14,0.1565,0.119313197767,0.0165,0.14,0.1565,0.119313197767,0.0165,0.14,0.1565,0.119313197767,0.0165,0.14,0.1565,0.119313197767,0.0165,0.14,0.1565,0.119313197767
34920000,82.9994843894,95.1713823213,76.9135354235,0.7665,0.176,0.594,0.0095,0.1655,0.175,0.0576569264069,0.0095,0.1655,0.175,0.0576569264069,0.0095,0.1655,0.175,0.0576569264069,0.0095,0.1655,0.175,0.0576569264069,0.0095,0.1655,0.175,0.0576569264069,0.0095,0.1655,0.175,0.0576569264069
34920000,84.8970564239,95.3689821042,79.6610935837,0.744,0.1795,0.5675,0.0105,0.1775,0.188,0.0595708639187,0.0105,0.1775,0.188,0.0595708639187,0.0105,0.1775,0.188,0.0595708639187,0.0105,0.1775,0.188,0.0595708639187,0.0105,0.1775,0.188,0.0595708639187,0.0105,0.1775,0.188,0.0595708639187
34920000,85.2626101618,97.6206573389,79.0835865732,0.7675,0.172,0.5905,0.0115,0.1635,0.175,0.0699404761905,0.0115,0.1635,0.175,0.0699404761905,0.0115,0.1635,0.175,0.0699404761905,0.0115,0.1635,0.175,0.0699404761905,0.0115,0.1635,0.175,0.0699404761905,0.0115,0.1635,0.175,0.0699404761905
34920000,86.5657218242,97.3371854893,81.1799899916,0.7845,0.1725,0.6155,0.021,0.162,0.183,0.124379485646,0.021,0.162,0.183,0.124379485646,0.021,0.162,0.183,0.124379485646,0.021,0.162,0.183,0.124379485646,0.021,0.162,0.183,0.124379485646,0.021,0.162,0.183,0.124379485646
34920000,87.7951831714,100.016456418,81.6845465481,0.775,0.168,0.607,0.014,0.1625,0.1765,0.0849859022556,0.014,0.1625,0.1765,0.0849859022556,0.014,0.1625,0.1765,0.0849859022556,0.014,0.1625,0.1765,0.0849859022556,0.014,0.1625,0.1765,0.0849859022556,0.014,0.1625,0.1765,0.0849859022556
34920000,89.6995415734,100.077711073,84.5104568236,0.744,0.17,0.574,0.014,0.152,0.166,0.0966165413534,0.012,0.152,0.164,0.0799498746867,0.012,0.152,0.164,0.0799498746867,0.012,0.152,0.164,0.0799498746867,0.012,0.152,0.164,0.0799498746867,0.012,0.152,0.164,0.0799498746867
34920000,89.7406942513,102.127595357,83.5472436983,0.744,0.1635,0.582,0.0125,0.1445,0.157,0.0907738095238,0.0125,0.1445,0.157,0.0907738095238,0.0125,0.1445,0.157,0.0907738095238,0.0125,0.1445,0.157,0.0907738095238,0.0125,0.1445,0.157,0.0907738095238,0.0125,0.1445,0.157,0.0907738095238
34920000,91.1795518542,101.813415084,85.8626202393,0.73,0.172,0.5595,0.012,0.164,0.176,0.0720922459893,0.012,0.164,0.176,0.0720922459893,0.012,0.164,0.176,0.0720922459893,0.012,0.164,0.176,0.0720922459893,0.012,0.164,0.176,0.0720922459893,0.012,0.164,0.176,0.0720922459893
34920000,91.3966600433,103.189623494,85.5001783179,0.7565,0.166,0.5895,0.019,0.1595,0.1785,0.11991697995,0.019,0.1595,0.1785,0.11991697995,0.019,0.1595,0.1785,0.11991697995,0.019,0.1595,0.1785,0.11991697995,0.019,0.1595,0.1785,0.11991697995,0.019,0.1595,0.1785,0.11991697995
34920000,92.8045120637,104.701089159,86.856223516,0.7445,0.1635,0.5825,0.0145,0.1635,0.178,0.0896146616541,0.0145,0.1635,0.178,0.0896146616541,0.0145,0.1635,0.178,0.0896146616541,0.0145,0.1635,0.178,0.0896146616541,0.0145,0.1635,0.178,0.0896146616541,0.0145,0.1635,0.178,0.0896146616541
34920000,93.9173276527,106.968555787,87.3917135854,0.7535,0.19,0.589,0.0115,0.169,0.1805,0.0704054618528,0.0115,0.169,0.1805,0.0704054618528,0.0115,0.169,0.1805,0.0704054618528,0.0105,0.169,0.1795,0.0670270834745,0.0105,0.169,0.1795,0.0670270834745,0.0105,0.169,0.1795,0.0670270834745
34960000,88.6612201733,104.723615692,80.6300224141,0.6085,0.174,0.4675,0.014,0.148,0.162,0.0963391935722,0.014,0.148,0.162,0.0963391935722,0.014,0.148,0.162,0.0963391935722,0.014,0.148,0.162,0.0963391935722,0.014,0.148,0.162,0.0963391935722,0.014,0.148,0.162,0.0963391935722
34960000,88.969073068,105.150041255,80.8785889747,0.7305,0.184,0.5505,0.0125,0.179,0.1915,0.0706439393939,0.0125,0.179,0.1915,0.0706439393939,0.0125,0.179,0.1915,0.0706439393939,0.0125,0.179,0.1915,0.0706439393939,0.0125,0.179,0.1915,0.0706439393939,0.0125,0.179,0.1915,0.0706439393939
34960000,91.6610660642,108.729388387,83.126904903,0.726,0.1725,0.5555,0.022,0.1665,0.1885,0.128820522774,0.022,0.1665,0.1885,0.128820522774,0.022,0.1665,0.1885,0.128820522774,0.022,0.1665,0.1885,0.128820522774,0.022,0.1665,0.1885,0.128820522774,0.022,0.1665,0.1885,0.128820522774
34960000,91.6910884762,109.024830968,83.0242172303,0.7335,0.2155,0.5375,0.0145,0.204,0.2185,0.0644952762456,0.0145,0.204,0.2185,0.0644952762456,0.0145,0.204,0.2185,0.0644952762456,0.0145,0.204,0.2185,0.0644952762456,0.0145,0.204,0.2185,0.0644952762456,0.0145,0.204,0.2185,0.0644952762456
34960000,92.4591824729,110.286718153,83.5454146327,0.7745,0.1825,0.5955,0.013,0.1775,0.1905,0.0728460850743,0.013,0.1775,0.1905,0.0728460850743,0.013,0.1775,0.1905,0.0728460850743,0.013,0.1775,0.1905,0.0728460850743,0.013,0.1775,0.1905,0.0728460850743,0.013,0.1775,0.1905,0.0728460850743
34960000,92.8137455694,108.496369256,84.9724337262,0.756,0.1735,0.5805,0.012,0.1685,0.1805,0.0726778656126,0.012,0.1685,0.1805,0.0726778656126,0.012,0.1685,0.1805,0.0726778656126,0.012,0.1685,0.1805,0.0726778656126,0.012,0.1685,0.1805,0.0726778656126,0.012,0.1685,0.1805,0.0726778656126
34960000,92.8365164927,112.222045157,83.1437521609,0.748,0.178,0.56,0.0145,0.1705,0.185,0.0873227411414,0.0145,0.1705,0.185,0.0873227411414,0.0145,0.1705,0.185,0.0873227411414,0.0145,0.1705,0.185,0.0873227411414,0.0145,0.1705,0.185,0.0873227411414,0.0145,0.1705,0.185,0.0873227411414
34960000,93.142644645,109.280886612,85.0735236616,0.764,0.178,0.578,0.008,0.164,0.172,0.0490901165958,0.008,0.164,0.172,0.0490901165958,0.008,0.164,0.172,0.0490901165958,0.008,0.164,0.172,0.0490901165958,0.008,0.164,0.172,0.0490901165958,0.008,0.164,0.172,0.0490901165958
34960000,93.2428818628,110.946450787,84.3910974007,0.72,0.1805,0.5485,0.0305,0.171,0.2015,0.178042438111,0.0285,0.171,0.1995,0.165542438111,0.0285,0.171,0.1995,0.165542438111,0.0285,0.171,0.1995,0.165542438111,0.0285,0.171,0.1995,0.165542438111,0.0165,0.171,0.1875,0.0973606199293
34960000,93.5978316861,114.144251379,83.3246218396,0.7465,0.1855,0.5595,0.016,0.1825,0.1985,0.0886328345567,0.016,0.1825,0.1985,0.0886328345567,0.016,0.1825,0.1985,0.0886328345567,0.016,0.1825,0.1985,0.0886328345567,0.016,0.1785,0.1945,0.0904444287596,0.016,0.1785,0.1945,0.0904444287596
34960000,93.6323595169,110.520205293,85.1884366286,0.743,0.224,0.568,0.0165,0.198,0.2145,0.0846861471861,0.0165,0.198,0.2145,0.0846861471861,0.0165,0.198,0.2145,0.0846861471861,0.0165,0.198,0.2145,0.0846861471861,0.0165,0.198,0.2145,0.0846861471861,0.0165,0.198,0.2145,0.0846861471861
34960000,94.0373301464,109.087098178,86.5124461305,0.7025,0.177,0.53,0.011,0.168,0.179,0.0659904673332,0.011,0.168,0.179,0.0659904673332,0.011,0.168,0.179,0.0659904673332,0.011,0.168,0.179,0.0659904673332,0.011,0.168,0.179,0.0659904673332,0.011,0.168,0.179,0.0659904673332
34960000,95.2868170437,115.00094735,85.4297518906,0.733,0.2065,0.56,0.019,0.1925,0.2115,0.105786897211,0.019,0.1925,0.2115,0.105786897211,0.019,0.1925,0.2115,0.105786897211,0.019,0.1925,0.2115,0.105786897211,0.019,0.1925,0.2115,0.105786897211,0.019,0.1925,0.2115,0.105786897211
34960000,97.2140123262,116.978190105,87.3319234365,0.6295,0.2525,0.4195,0.012,0.22,0.232,0.066057918003,0.012,0.22,0.232,0.066057918003,0.012,0.22,0.232,0.066057918003,0.012,0.22,0.232,0.066057918003,0.012,0.22,0.232,0.066057918003,0.012,0.22,0.232,0.066057918003
34960000,97.3622016111,111.101720157,90.4924423382,0.741,0.1945,0.5555,0.012,0.187,0.199,0.0679338023088,0.012,0.182,0.194,0.0684938381511,0.012,0.182,0.194,0.0684938381511,0.012,0.182,0.194,0.0684938381511,0.012,0.182,0.194,0.0684938381511,0.012,0.182,0.194,0.0684938381511
34960000,99.464329722,119.328218267,89.5323854497,0.722,0.178,0.537,0.018,0.178,0.196,0.0976162497902,0.018,0.178,0.196,0.0976162497902,0.018,0.178,0.196,0.0976162497902,0.018,0.178,0.196,0.0976162497902,0.018,0.178,0.196,0.0976162497902,0.018,0.178,0.196,0.0976162497902
34960000,100.243057285,119.881379071,90.4238963913,0.714,0.1675,0.542,0.017,0.1625,0.1795,0.108032866257,0.017,0.1625,0.1795,0.108032866257,0.017,0.1625,0.1795,0.108032866257,0.017,0.1625,0.1795,0.108032866257,0.017,0.1625,0.1795,0.108032866257,0.017,0.1625,0.1795,0.108032866257
35000000,98.015113839,120.297918453,86.8737115323,0.671,0.169,0.51,0.022,0.166,0.188,0.132792207792,0.022,0.166,0.188,0.132792207792,0.021,0.166,0.187,0.126542207792,0.021,0.166,0.187,0.126542207792,0.021,0.166,0.187,0.126542207792,0.021,0.166,0.187,0.126542207792
35000000,103.205304469,122.628331418,93.4937909938,0.682,0.176,0.508,0.016,0.168,0.184,0.0934343434343,0.016,0.168,0.184,0.0934343434343,0.016,0.168,0.184,0.0934343434343,0.016,0.168,0.184,0.0934343434343,0.016,0.168,0.184,0.0934343434343,0.016,0.168,0.184,0.0934343434343
35000000,104.803884916,128.057198571,93.1772280887,0.677,0.165,0.5055,0.012,0.1635,0.1755,0.0754472243443,0.012,0.1635,0.1755,0.0754472243443,0.012,0.1635,0.1755,0.0754472243443,0.012,0.1635,0.1755,0.0754472243443,0.012,0.1635,0.1755,0.0754472243443,0.012,0.1635,0.1755,0.0754472243443
35000000,106.982169765,123.355545427,98.7954819346,0.7255,0.1775,0.5135,0.013,0.1725,0.1855,0.0786086309524,0.013,0.1725,0.1855,0.0786086309524,0.013,0.1725,0.1855,0.0786086309524,0.009,0.1725,0.1815,0.0536086309524,0.009,0.1725,0.1815,0.0536086309524,0.009,0.1725,0.1815,0.0536086309524
35040000,87.110349765,128.792346911,66.2693511921,0.753,0.267,0.379,0.027,0.248,0.275,0.1125,0.027,0.248,0.275,0.1125,0.027,0.248,0.275,0.1125,0.027,0.248,0.275,0.1125,0.027,0.248,0.275,0.1125,0.027,0.248,0.275,0.1125
35080000,87.5292750708,133.034115997,64.7768546076,0.73,0.186,0.5375,0.012,0.1845,0.1965,0.064228013834,0.012,0.1845,0.1965,0.064228013834,0.012,0.1845,0.1965,0.064228013834,0.012,0.1845,0.1965,0.064228013834,0.012,0.1845,0.1965,0.064228013834,0.012,0.1845,0.1965,0.064228013834
35080000,87.9488833942,137.04277082,63.4019396815,0.808,0.408,0.6,0.016,0.408,0.424,0.0392156862745,0.016,0.408,0.424,0.0392156862745,0.016,0.408,0.424,0.0392156862745,0.016,0.408,0.424,0.0392156862745,0.016,0.408,0.424,0.0392156862745,0.016,0.408,0.424,0.0392156862745
35080000,87.9552816673,136.274085274,63.7958798641,0.779,0.249,0.589,0.0145,0.2465,0.261,0.0614729473425,0.0145,0.2465,0.261,0.0614729473425,0.0145,0.2465,0.261,0.0614729473425,0.0145,0.2465,0.261,0.0614729473425,0.0145,0.2465,0.261,0.0614729473425,0.0145,0.2465,0.261,0.0614729473425
35080000,90.1816829885,138.751252297,65.8968983344,0.7575,0.193,0.5585,0.0205,0.175,0.1955,0.123910984848,0.0205,0.175,0.1955,0.123910984848,0.0205,0.175,0.1955,0.123910984848,0.0205,0.175,0.1955,0.123910984848,0.0205,0.175,0.1955,0.123910984848,0.0205,0.175,0.1955,0.123910984848
35120000,84.8124191738,132.111533754,61.1628618838,0.7955,0.195,0.601,0.012,0.167,0.179,0.0751585144928,0.012,0.167,0.179,0.0751585144928,0.012,0.167,0.179,0.0751585144928,0.012,0.167,0.179,0.0751585144928,0.012,0.167,0.179,0.0751585144928,0.012,0.167,0.179,0.0751585144928
35120000,85.972139564,134.352417111,61.7820007905,0.7995,0.1955,0.6025,0.0085,0.1915,0.2,0.044393115942,0.0085,0.1915,0.2,0.044393115942,0.0085,0.1915,0.2,0.044393115942,0.0085,0.1915,0.2,0.044393115942,0.0085,0.1915,0.2,0.044393115942,0.0085,0.1915,0.2,0.044393115942
35120000,87.0246823029,133.854668367,63.6096892708,0.7885,0.196,0.598,0.0235,0.175,0.1985,0.129867149758,0.0235,0.175,0.1985,0.129867149758,0.0235,0.175,0.1985,0.129867149758,0.0235,0.175,0.1985,0.129867149758,0.0235,0.175,0.1985,0.129867149758,0.0235,0.175,0.1985,0.129867149758
35120000,88.0394003363,136.598797679,63.7597016648,0.772,0.185,0.574,0.008,0.179,0.187,0.0449364177489,0.008,0.179,0.187,0.0449364177489,0.008,0.179,0.187,0.0449364177489,0.008,0.179,0.187,0.0449364177489,0.008,0.179,0.187,0.0449364177489,0.008,0.179,0.187,0.0449364177489
35120000,88.5787573781,137.539516266,64.0983779342,0.7605,0.182,0.5755,0.011,0.168,0.179,0.0657242063492,0.011,0.168,0.179,0.0657242063492,0.011,0.168,0.179,0.0657242063492,0.011,0.168,0.179,0.0657242063492,0.011,0.168,0.179,0.0657242063492,0.011,0.168,0.179,0.0657242063492
35120000,89.0444152883,137.323466992,64.9048894362,0.7895,0.1915,0.5975,0.0085,0.182,0.1905,0.0466897233202,0.0085,0.182,0.1905,0.0466897233202,0.0085,0.182,0.1905,0.0466897233202,0.0085,0.182,0.1905,0.0466897233202,0.0085,0.182,0.1905,0.0466897233202,0.0085,0.182,0.1905,0.0466897233202
35120000,89.0798516553,138.958147777,64.1407035942,0.784,0.1945,0.587,0.024,0.1945,0.2185,0.121191123188,0.024,0.1945,0.2185,0.121191123188,0.024,0.1945,0.2185,0.121191123188,0.024,0.1945,0.2185,0.121191123188,0.024,0.1945,0.2185,0.121191123188,0.024,0.1925,0.2165,0.121685194335
35120000,89.3108396616,138.571250292,64.6806343465,0.784,0.193,0.591,0.038,0.1845,0.2225,0.206192358366,0.038,0.1845,0.2225,0.206192358366,0.038,0.1845,0.2225,0.206192358366,0.038,0.1845,0.2225,0.206192358366,0.038,0.1845,0.2225,0.206192358366,0.038,0.1845,0.2225,0.206192358366
35120000,89.4696950526,138.55431385,64.9273856539,0.7615,0.196,0.5405,0.0375,0.188,0.2255,0.198369565217,0.0375,0.188,0.2255,0.198369565217,0.0375,0.188,0.2255,0.198369565217,0.0375,0.188,0.2255,0.198369565217,0.0375,0.188,0.2255,0.198369565217,0.0375,0.188,0.2255,0.198369565217
35120000,90.0248534459,139.529970963,65.2722946876,0.77,0.19,0.5735,0.0115,0.1825,0.194,0.0648638951628,0.0115,0.1825,0.194,0.0648638951628,0.0115,0.1825,0.194,0.0648638951628,0.0115,0.1825,0.194,0.0648638951628,0.0115,0.1825,0.194,0.0648638951628,0.0115,0.1825,0.194,0.0648638951628
35120000,90.0691445022,140.397831951,64.9048007778,0.7685,0.1925,0.5775,0.0185,0.1755,0.194,0.104931300583,0.0185,0.1755,0.194,0.104931300583,0.0185,0.1755,0.194,0.104931300583,0.0185,0.1755,0.194,0.104931300583,0.0185,0.1755,0.194,0.104931300583,0.0185,0.1755,0.194,0.104931300583
35120000,90.9412356183,140.262941936,66.2803824592,0.7755,0.191,0.5835,0.0135,0.188,0.2015,0.0721858530962,0.0135,0.188,0.2015,0.0721858530962,0.0135,0.188,0.2015,0.0721858530962,0.0135,0.188,0.2015,0.0721858530962,0.0135,0.188,0.2015,0.0721858530962,0.0135,0.188,0.2015,0.0721858530962
35120000,90.9614904278,142.44154119,65.2214650466,0.797,0.181,0.6075,0.009,0.1755,0.1845,0.0515927912667,0.009,0.1755,0.1845,0.0515927912667,0.009,0.1755,0.1845,0.0515927912667,0.009,0.1755,0.1845,0.0515927912667,0.009,0.1755,0.1845,0.0515927912667,0.009,0.1755,0.1845,0.0515927912667
35120000,90.9972849253,141.348683096,65.8215858401,0.7775,0.1945,0.5855,0.0185,0.191,0.2095,0.0962648809524,0.0185,0.191,0.2095,0.0962648809524,0.0185,0.191,0.2095,0.0962648809524,0.0185,0.191,0.2095,0.0962648809524,0.0185,0.191,0.2095,0.0962648809524,0.0185,0.191,0.2095,0.0962648809524
35120000,91.0975058094,140.888674607,66.2019214109,0.7635,0.1975,0.5685,0.0175,0.182,0.1995,0.0959956709957,0.0175,0.182,0.1995,0.0959956709957,0.0175,0.182,0.1995,0.0959956709957,0.0175,0.182,0.1995,0.0959956709957,0.0175,0.182,0.1995,0.0959956709957,0.0175,0.182,0.1995,0.0959956709957
35120000,91.4619160357,142.3634499,66.0111491037,0.7295,0.194,0.5325,0.016,0.186,0.202,0.0863185817805,0.016,0.186,0.202,0.0863185817805,0.016,0.186,0.202,0.0863185817805,0.016,0.186,0.202,0.0863185817805,0.016,0.186,0.202,0.0863185817805,0.016,0.186,0.202,0.0863185817805
35120000,91.4639366402,141.311238597,66.5402856616,0.7715,0.19,0.5855,0.024,0.1765,0.2005,0.128836697723,0.024,0.1765,0.2005,0.128836697723,0.024,0.1765,0.2005,0.128836697723,0.024,0.1765,0.2005,0.128836697723,0.024,0.1765,0.2005,0.128836697723,0.024,0.1765,0.2005,0.128836697723
35120000,91.4695064354,141.573734248,66.4173925291,0.7805,0.223,0.5675,0.0085,0.2055,0.214,0.0431700407436,0.0085,0.2055,0.214,0.0431700407436,0.0085,0.2055,0.214,0.0431700407436,0.0085,0.2055,0.214,0.0431700407436,0.0085,0.2045,0.213,0.0433137189045,0.0085,0.2045,0.213,0.0433137189045
35120000,91.697488599,142.745176229,66.1736447841,0.773,0.187,0.5845,0.0105,0.18,0.1905,0.0580533596838,0.0105,0.18,0.1905,0.0580533596838,0.0105,0.18,0.1905,0.0580533596838,0.0105,0.18,0.1905,0.0580533596838,0.0105,0.18,0.1905,0.0580533596838,0.0105,0.18,0.1905,0.0580533596838
35120000,91.835070601,143.313229883,66.0959909601,0.803,0.1925,0.5825,0.015,0.19,0.205,0.0819696969697,0.015,0.19,0.205,0.0819696969697,0.015,0.19,0.205,0.0819696969697,0.015,0.19,0.205,0.0819696969697,0.015,0.19,0.205,0.0819696969697,0.015,0.19,0.205,0.0819696969697
35120000,91.8559711736,142.377388311,66.5952626047,0.778,0.2045,0.5825,0.02,0.186,0.206,0.119717261905,0.02,0.186,0.206,0.119717261905,0.02,0.186,0.206,0.119717261905,0.02,0.186,0.206,0.119717261905,0.02,0.186,0.206,0.119717261905,0.02,0.186,0.206,0.119717261905
35120000,91.9886045338,142.41255573,66.7766289356,0.776,0.191,0.577,0.026,0.1835,0.2095,0.141427865613,0.026,0.1835,0.2095,0.141427865613,0.026,0.1835,0.2095,0.141427865613,0.026,0.1835,0.2095,0.141427865613,0.026,0.1835,0.2095,0.141427865613,0.026,0.1835,0.2095,0.141427865613
35120000,92.0666440462,141.716545215,67.2416934618,0.7725,0.1855,0.583,0.011,0.1795,0.1905,0.0602458003953,0.011,0.1795,0.1905,0.0602458003953,0.011,0.1795,0.1905,0.0602458003953,0.011,0.1795,0.1905,0.0602458003953,0.011,0.1795,0.1905,0.0602458003953,0.011,0.1795,0.1905,0.0602458003953
35120000,92.2836390843,142.227393575,67.3117618388,0.765,0.1935,0.5705,0.022,0.192,0.214,0.113401915114,0.022,0.192,0.214,0.113401915114,0.022,0.192,0.214,0.113401915114,0.022,0.192,0.214,0.113401915114,0.022,0.192,0.214,0.113401915114,0.022,0.192,0.214,0.113401915114
35120000,92.6466931906,144.052823115,66.9436282284,0.776,0.18,0.598,0.0255,0.154,0.1795,0.160470191041,0.0255,0.154,0.1795,0.160470191041,0.0255,0.154,0.1795,0.160470191041,0.0255,0.154,0.1795,0.160470191041,0.0255,0.154,0.1795,0.160470191041,0.0255,0.154,0.1795,0.160470191041
35120000,92.8192977754,144.344009988,67.0569416691,0.7645,0.182,0.582,0.0105,0.179,0.1895,0.0595009743028,0.0105,0.179,0.1895,0.0595009743028,0.0105,0.179,0.1895,0.0595009743028,0.0105,0.179,0.1895,0.0595009743028,0.0105,0.179,0.1895,0.0595009743028,0.0105,0.179,0.1895,0.0595009743028
35120000,92.8380282108,142.153507824,68.1802884043,0.762,0.1935,0.569,0.0125,0.19,0.2025,0.0677075098814,0.0125,0.19,0.2025,0.0677075098814,0.0125,0.19,0.2025,0.0677075098814,0.0125,0.19,0.2025,0.0677075098814,0.0125,0.19,0.2025,0.0677075098814,0.0125,0.19,0.2025,0.0677075098814
35120000,92.8655044032,144.019354985,67.288579112,0.761,0.1815,0.574,0.025,0.1615,0.1865,0.15439538611,0.025,0.1615,0.1865,0.15439538611,0.025,0.1615,0.1865,0.15439538611,0.025,0.1615,0.1865,0.15439538611,0.025,0.1615,0.1865,0.15439538611,0.025,0.1615,0.1865,0.15439538611
35120000,92.8836300903,141.659951388,68.4954694414,0.7535,0.193,0.5645,0.01,0.192,0.202,0.0526086956522,0.01,0.192,0.202,0.0526086956522,0.01,0.192,0.202,0.0526086956522,0.01,0.192,0.202,0.0526086956522,0.01,0.192,0.202,0.0526086956522,0.01,0.192,0.202,0.0526086956522
35120000,92.8870240974,142.760383752,67.9503442701,0.7545,0.189,0.562,0.042,0.169,0.211,0.253354684265,0.042,0.169,0.211,0.253354684265,0.042,0.169,0.211,0.253354684265,0.042,0.169,0.211,0.253354684265,0.042,0.169,0.211,0.253354684265,0.042,0.169,0.211,0.253354684265
35120000,92.9421668105,144.867585363,66.9794575344,0.788,0.208,0.6025,0.012,0.1975,0.2095,0.0627627580753,0.012,0.1975,0.2095,0.0627627580753,0.012,0.1975,0.2095,0.0627627580753,0.012,0.1975,0.2095,0.0627627580753,0.012,0.1975,0.2095,0.0627627580753,0.012,0.1975,0.2095,0.0627627580753
35120000,92.9861117143,143.870079344,67.5441278996,0.7625,0.189,0.576,0.0175,0.175,0.1925,0.100421195652,0.0175,0.175,0.1925,0.100421195652,0.0175,0.175,0.1925,0.100421195652,0.0175,0.175,0.1925,0.100421195652,0.0175,0.175,0.1925,0.100421195652,0.0175,0.175,0.1925,0.100421195652
35120000,93.1919341806,144.65555627,67.4601231359,0.7715,0.2025,0.59,0.018,0.1935,0.2115,0.0991585497835,0.018,0.1935,0.2115,0.0991585497835,0.018,0.1935,0.2115,0.0991585497835,0.018,0.1935,0.2115,0.0991585497835,0.018,0.1935,0.2115,0.0991585497835,0.018,0.1935,0.2115,0.0991585497835
35120000,93.6080547921,145.221750136,67.8012071204,0.753,0.192,0.5535,0.01,0.186,0.196,0.0531831709957,0.01,0.186,0.196,0.0531831709957,0.01,0.186,0.196,0.0531831709957,0.01,0.186,0.196,0.0531831709957,0.01,0.186,0.196,0.0531831709957,0.01,0.186,0.196,0.0531831709957
35120000,93.7989696728,144.459127315,68.4688908519,0.761,0.194,0.572,0.011,0.193,0.204,0.0575932400932,0.011,0.193,0.204,0.0575932400932,0.011,0.193,0.204,0.0575932400932,0.011,0.193,0.204,0.0575932400932,0.011,0.193,0.204,0.0575932400932,0.011,0.193,0.204,0.0575932400932
35120000,93.8224433226,144.221656449,68.6228367594,0.7565,0.177,0.5665,0.011,0.176,0.187,0.0616677253906,0.011,0.176,0.187,0.0616677253906,0.011,0.176,0.187,0.0616677253906,0.011,0.176,0.187,0.0616677253906,0.011,0.176,0.187,0.0616677253906,0.011,0.176,0.187,0.0616677253906
35120000,93.9292204903,145.547064303,68.1202985838,0.763,0.1915,0.5765,0.0115,0.1855,0.197,0.0618618247694,0.0115,0.1855,0.197,0.0618618247694,0.0115,0.1855,0.197,0.0618618247694,0.0115,0.1855,0.197,0.0618618247694,0.0115,0.1855,0.197,0.0618618247694,0.0115,0.1855,0.197,0.0618618247694
35120000,94.3832149255,145.730172103,68.7097363367,0.758,0.187,0.576,0.0295,0.182,0.2115,0.162293548842,0.0295,0.182,0.2115,0.162293548842,0.0295,0.182,0.2115,0.162293548842,0.0295,0.182,0.2115,0.162293548842,0.0295,0.182,0.2115,0.162293548842,0.0295,0.182,0.2115,0.162293548842
35120000,94.7495604077,146.991045783,68.6288177199,0.781,0.181,0.5975,0.0225,0.163,0.1855,0.137148268398,0.0225,0.163,0.1855,0.137148268398,0.0225,0.163,0.1855,0.137148268398,0.0215,0.163,0.1845,0.131195887446,0.0185,0.163,0.1815,0.113338744589,0.0185,0.163,0.1815,0.113338744589
35120000,94.777406107,146.587183875,68.8725172233,0.7585,0.1825,0.5765,0.008,0.1785,0.1865,0.0448369565217,0.008,0.1785,0.1865,0.0448369565217,0.008,0.1785,0.1865,0.0448369565217,0.008,0.1785,0.1865,0.0448369565217,0.008,0.1785,0.1865,0.0448369565217,0.008,0.1785,0.1865,0.0448369565217
35120000,95.0501625885,147.169213188,68.9906372887,0.763,0.1855,0.5715,0.0105,0.167,0.1775,0.062591941811,0.0105,0.167,0.1775,0.062591941811,0.0105,0.167,0.1775,0.062591941811,0.0105,0.167,0.1775,0.062591941811,0.0105,0.167,0.1775,0.062591941811,0.0105,0.167,0.1775,0.062591941811
35120000,95.058094154,147.287046712,68.943617875,0.7635,0.1825,0.5825,0.0155,0.1805,0.196,0.0871609142669,0.0155,0.1805,0.196,0.0871609142669,0.0155,0.1805,0.196,0.0871609142669,0.0155,0.1805,0.196,0.0871609142669,0.0155,0.1805,0.196,0.0871609142669,0.0155,0.1805,0.196,0.0871609142669
35120000,95.111593363,146.635245861,69.3497671142,0.757,0.188,0.5695,0.011,0.1865,0.1975,0.0584057971014,0.011,0.1865,0.1975,0.0584057971014,0.011,0.1865,0.1975,0.0584057971014,0.011,0.1865,0.1975,0.0584057971014,0.011,0.1865,0.1975,0.0584057971014,0.011,0.1865,0.1975,0.0584057971014
35120000,95.1225723567,148.213096459,68.5773103057,0.7645,0.1965,0.5705,0.0105,0.1925,0.203,0.0557065217391,0.0085,0.1925,0.201,0.0448369565217,0.0085,0.1925,0.201,0.0448369565217,0.0085,0.1925,0.201,0.0448369565217,0.0085,0.1925,0.201,0.0448369565217,0.0085,0.1925,0.201,0.0448369565217
35120000,95.1271893423,147.730378757,68.8255946351,0.7235,0.187,0.5345,0.017,0.174,0.191,0.097711833004,0.017,0.174,0.191,0.097711833004,0.017,0.174,0.191,0.097711833004,0.017,0.174,0.191,0.097711833004,0.017,0.174,0.191,0.097711833004,0.017,0.174,0.191,0.097711833004
35120000,95.1717075535,146.110337381,69.7023926396,0.75,0.204,0.55,0.022,0.192,0.214,0.118390804598,0.022,0.192,0.214,0.118390804598,0.022,0.192,0.214,0.118390804598,0.022,0.192,0.214,0.118390804598,0.022,0.192,0.214,0.118390804598,0.022,0.192,0.214,0.118390804598
35120000,95.6732592784,148.97557661,69.0221006128,0.7585,0.1955,0.565,0.0135,0.1845,0.198,0.0722819028797,0.0135,0.1845,0.198,0.0722819028797,0.0135,0.1845,0.198,0.0722819028797,0.0135,0.1845,0.198,0.0722819028797,0.0135,0.1845,0.198,0.0722819028797,0.0135,0.1845,0.198,0.0722819028797
35120000,95.7005958333,148.094179213,69.5038041435,0.7435,0.184,0.5555,0.0085,0.175,0.1835,0.0484777903256,0.0085,0.175,0.1835,0.0484777903256,0.0085,0.175,0.1835,0.0484777903256,0.0085,0.175,0.1835,0.0484777903256,0.0085,0.175,0.1835,0.0484777903256,0.0085,0.175,0.1835,0.0484777903256
35120000,95.9046949053,146.856098568,70.4289930738,0.732,0.182,0.5425,0.013,0.1805,0.1935,0.0730218855219,0.013,0.1805,0.1935,0.0730218855219,0.013,0.1805,0.1935,0.0730218855219,0.013,0.1805,0.1935,0.0730218855219,0.013,0.1805,0.1935,0.0730218855219,0.013,0.1805,0.1935,0.0730218855219
35120000,95.9992162316,147.479684381,70.2589821571,0.7595,0.187,0.5735,0.0145,0.178,0.1925,0.0820689817429,0.0145,0.178,0.1925,0.0820689817429,0.0145,0.178,0.1925,0.0820689817429,0.0145,0.178,0.1925,0.0820689817429,0.0145,0.178,0.1925,0.0820689817429,0.0145,0.178,0.1925,0.0820689817429
35120000,96.0960881193,149.740298164,69.2739830967,0.793,0.179,0.6145,0.0265,0.1715,0.198,0.155341850179,0.0265,0.1715,0.198,0.155341850179,0.0265,0.1715,0.198,0.155341850179,0.0265,0.1715,0.198,0.155341850179,0.0265,0.1715,0.198,0.155341850179,0.0265,0.1715,0.198,0.155341850179
35120000,97.4006953217,149.102102803,71.549991581,0.7385,0.1905,0.5505,0.031,0.1825,0.2135,0.176459447415,0.031,0.1825,0.2135,0.176459447415,0.031,0.1825,0.2135,0.176459447415,0.031,0.1825,0.2135,0.176459447415,0.031,0.1825,0.2135,0.176459447415,0.031,0.1825,0.2135,0.176459447415
35120000,97.4903729154,149.776649712,71.3472345169,0.7625,0.18,0.5805,0.023,0.18,0.203,0.127079216074,0.023,0.18,0.203,0.127079216074,0.023,0.18,0.203,0.127079216074,0.023,0.18,0.203,0.127079216074,0.023,0.18,0.203,0.127079216074,0.023,0.18,0.203,0.127079216074
35120000,98.6914705452,149.66096512,73.2067232576,0.717,0.1785,0.551,0.013,0.1685,0.1815,0.0768277691511,0.013,0.1685,0.1815,0.0768277691511,0.013,0.1685,0.1815,0.0768277691511,0.013,0.1685,0.1815,0.0768277691511,0.013,0.1685,0.1815,0.0768277691511,0.013,0.1685,0.1815,0.0768277691511
35200000,87.2050931806,134.038128111,63.7885757153,0.755,0.195,0.561,0.014,0.189,0.203,0.0736607142857,0.014,0.189,0.203,0.0736607142857,0.014,0.189,0.203,0.0736607142857,0.014,0.189,0.203,0.0736607142857,0.014,0.189,0.203,0.0736607142857,0.014,0.189,0.203,0.0736607142857
35200000,87.5146726726,125.533392715,68.5053126513,0.685,0.2,0.49,0.0225,0.195,0.2175,0.115222926731,0.0225,0.195,0.2175,0.115222926731,0.0225,0.195,0.2175,0.115222926731,0.0225,0.195,0.2175,0.115222926731,0.022,0.195,0.217,0.112097926731,0.022,0.195,0.217,0.112097926731
35200000,89.1800878112,139.701521056,63.9193711889,0.825,0.2055,0.623,0.026,0.2055,0.2315,0.125480769231,0.026,0.2055,0.2315,0.125480769231,0.026,0.2055,0.2315,0.125480769231,0.026,0.2055,0.2315,0.125480769231,0.026,0.2055,0.2315,0.125480769231,0.026,0.2055,0.2315,0.125480769231
35200000,89.3131766168,137.9813722,64.9790788253,0.766,0.1985,0.573,0.028,0.196,0.224,0.140960393773,0.028,0.196,0.224,0.140960393773,0.028,0.196,0.224,0.140960393773,0.028,0.196,0.224,0.140960393773,0.028,0.196,0.224,0.140960393773,0.028,0.196,0.224,0.140960393773
35200000,89.5217325766,140.313940719,64.1256285052,0.801,0.1975,0.6025,0.009,0.1835,0.1925,0.0492414529915,0.009,0.1835,0.1925,0.0492414529915,0.009,0.1835,0.1925,0.0492414529915,0.009,0.1835,0.1925,0.0492414529915,0.009,0.1835,0.1925,0.0492414529915,0.009,0.1835,0.1925,0.0492414529915
35200000,90.1494182145,139.101962483,65.67314608,0.785,0.1855,0.583,0.016,0.168,0.184,0.106060606061,0.016,0.168,0.184,0.106060606061,0.016,0.168,0.184,0.106060606061,0.016,0.168,0.184,0.106060606061,0.016,0.168,0.184,0.106060606061,0.016,0.168,0.184,0.106060606061
35200000,90.2239342082,138.946392555,65.8627050348,0.773,0.1925,0.5765,0.0185,0.185,0.2035,0.101428571429,0.0185,0.185,0.2035,0.101428571429,0.0185,0.185,0.2035,0.101428571429,0.0185,0.185,0.2035,0.101428571429,0.0185,0.185,0.2035,0.101428571429,0.0185,0.185,0.2035,0.101428571429
35200000,90.4632082774,138.017691503,66.6859666644,0.7355,0.193,0.543,0.022,0.1895,0.2115,0.116387263099,0.022,0.1895,0.2115,0.116387263099,0.022,0.1895,0.2115,0.116387263099,0.022,0.1895,0.2115,0.116387263099,0.022,0.1895,0.2115,0.116387263099,0.022,0.1895,0.2115,0.116387263099
35200000,91.4661441815,142.82154849,65.7884420274,0.803,0.188,0.617,0.018,0.175,0.193,0.102258022774,0.018,0.175,0.193,0.102258022774,0.018,0.175,0.193,0.102258022774,0.018,0.175,0.193,0.102258022774,0.018,0.175,0.193,0.102258022774,0.018,0.175,0.193,0.102258022774
35200000,91.7532716789,141.195150478,67.0323322794,0.826,0.1995,0.6265,0.011,0.196,0.207,0.0571739130435,0.011,0.196,0.207,0.0571739130435,0.011,0.196,0.207,0.0571739130435,0.011,0.196,0.207,0.0571739130435,0.011,0.196,0.207,0.0571739130435,0.011,0.196,0.207,0.0571739130435
35200000,92.1085401958,142.385874937,66.9698728252,0.778,0.2045,0.572,0.011,0.2,0.211,0.056143543956,0.011,0.2,0.211,0.056143543956,0.011,0.2,0.211,0.056143543956,0.011,0.2,0.211,0.056143543956,0.011,0.2,0.211,0.056143543956,0.011,0.2,0.211,0.056143543956
35200000,92.1817813511,144.049899471,66.2477222913,0.807,0.193,0.6145,0.0135,0.179,0.1925,0.0745576298701,0.0135,0.179,0.1925,0.0745576298701,0.0135,0.179,0.1925,0.0745576298701,0.0135,0.179,0.1925,0.0745576298701,0.0135,0.179,0.1925,0.0745576298701,0.0135,0.179,0.1925,0.0745576298701
35200000,93.2859099056,143.572332565,68.142698576,0.76,0.2035,0.56,0.01,0.1995,0.2095,0.0508204431438,0.01,0.1995,0.2095,0.0508204431438,0.01,0.1995,0.2095,0.0508204431438,0.01,0.1995,0.2095,0.0508204431438,0.01,0.1995,0.2095,0.0508204431438,0.01,0.1995,0.2095,0.0508204431438
35200000,93.6881950748,145.03523621,68.014674507,0.7975,0.2035,0.6,0.013,0.1745,0.1875,0.0718276515152,0.013,0.1745,0.1875,0.0718276515152,0.013,0.1745,0.1875,0.0718276515152,0.013,0.1745,0.1875,0.0718276515152,0.013,0.1745,0.1875,0.0718276515152,0.013,0.1745,0.1875,0.0718276515152
35200000,93.7988280615,143.01194517,69.1922695072,0.732,0.181,0.545,0.024,0.181,0.205,0.134601449275,0.024,0.181,0.205,0.134601449275,0.024,0.181,0.205,0.134601449275,0.024,0.181,0.205,0.134601449275,0.024,0.181,0.205,0.134601449275,0.024,0.181,0.205,0.134601449275
35200000,93.8987539056,143.979586978,68.8583373696,0.787,0.195,0.594,0.018,0.19,0.208,0.0955797101449,0.018,0.19,0.208,0.0955797101449,0.018,0.19,0.208,0.0955797101449,0.018,0.19,0.208,0.0955797101449,0.018,0.19,0.208,0.0955797101449,0.018,0.19,0.208,0.0955797101449
35200000,93.9012101607,143.075798093,69.3139161944,0.761,0.206,0.559,0.0265,0.1945,0.221,0.135425724638,0.0265,0.1945,0.221,0.135425724638,0.0265,0.1945,0.221,0.135425724638,0.0265,0.1945,0.221,0.135425724638,0.0265,0.1945,0.221,0.135425724638,0.0265,0.1905,0.217,0.140643115942
35200000,93.9621011594,143.660520941,69.1128912688,0.767,0.1915,0.5705,0.0285,0.1875,0.216,0.149524868248,0.0285,0.1875,0.216,0.149524868248,0.0285,0.1875,0.216,0.149524868248,0.0285,0.1875,0.216,0.149524868248,0.0285,0.1875,0.216,0.149524868248,0.0285,0.1875,0.216,0.149524868248
35200000,94.0210709436,144.482073381,68.7905697251,0.7685,0.1995,0.5715,0.0175,0.1935,0.211,0.0907219139556,0.0175,0.1935,0.211,0.0907219139556,0.0175,0.1935,0.211,0.0907219139556,0.0175,0.1935,0.211,0.0907219139556,0.0175,0.1935,0.211,0.0907219139556,0.0175,0.1935,0.211,0.0907219139556
35200000,94.1600960314,144.859357904,68.8104650949,0.7595,0.2015,0.554,0.015,0.1965,0.2115,0.0757964046823,0.015,0.1965,0.2115,0.0757964046823,0.015,0.1965,0.2115,0.0757964046823,0.015,0.1965,0.2115,0.0757964046823,0.015,0.1965,0.2115,0.0757964046823,0.015,0.1965,0.2115,0.0757964046823
35200000,94.3455677129,144.2851592,69.3757719693,0.734,0.1905,0.5325,0.008,0.186,0.194,0.0445946806816,0.008,0.186,0.194,0.0445946806816,0.008,0.186,0.194,0.0445946806816,0.008,0.186,0.194,0.0445946806816,0.008,0.186,0.194,0.0445946806816,0.008,0.186,0.194,0.0445946806816
35200000,94.6014386006,145.863239688,68.9705380571,0.783,0.25,0.5645,0.0135,0.238,0.2515,0.058145206243,0.0135,0.238,0.2515,0.058145206243,0.0135,0.238,0.2515,0.058145206243,0.0135,0.238,0.2515,0.058145206243,0.0135,0.238,0.2515,0.058145206243,0.0135,0.238,0.2515,0.058145206243
35200000,95.0915792455,146.419325202,69.4277062673,0.759,0.1975,0.5555,0.024,0.176,0.2,0.133347449652,0.024,0.176,0.2,0.133347449652,0.024,0.176,0.2,0.133347449652,0.024,0.176,0.2,0.133347449652,0.024,0.176,0.2,0.133347449652,0.024,0.176,0.2,0.133347449652
35200000,95.1866162522,147.012208515,69.2738201207,0.7665,0.2235,0.566,0.0245,0.2075,0.232,0.125347222222,0.0245,0.2075,0.232,0.125347222222,0.0245,0.2075,0.232,0.125347222222,0.0245,0.2075,0.232,0.125347222222,0.0245,0.2075,0.232,0.125347222222,0.0245,0.2075,0.232,0.125347222222
35200000,95.4910175918,147.510020236,69.4815162697,0.7985,0.1895,0.598,0.018,0.184,0.202,0.0978466732543,0.018,0.184,0.202,0.0978466732543,0.018,0.184,0.202,0.0978466732543,0.018,0.184,0.202,0.0978466732543,0.018,0.184,0.202,0.0978466732543,0.018,0.184,0.202,0.0978466732543
35200000,96.1335812784,147.619450959,70.390646438,0.74,0.189,0.5475,0.0085,0.188,0.1965,0.0451972167325,0.0085,0.188,0.1965,0.0451972167325,0.0085,0.188,0.1965,0.0451972167325,0.0085,0.188,0.1965,0.0451972167325,0.0085,0.188,0.1965,0.0451972167325,0.0085,0.188,0.1965,0.0451972167325
35200000,96.5222144638,147.565735934,71.0004537289,0.757,0.2,0.559,0.01,0.188,0.198,0.0547114389234,0.01,0.188,0.198,0.0547114389234,0.01,0.188,0.198,0.0547114389234,0.01,0.188,0.198,0.0547114389234,0.01,0.188,0.198,0.0547114389234,0.01,0.188,0.198,0.0547114389234
35200000,96.6834599162,148.080377958,70.9850008953,0.749,0.196,0.5495,0.011,0.1935,0.2045,0.0561789297659,0.011,0.1935,0.2045,0.0561789297659,0.011,0.1935,0.2045,0.0561789297659,0.011,0.1935,0.2045,0.0561789297659,0.011,0.1935,0.2045,0.0561789297659,0.011,0.1935,0.2045,0.0561789297659
35200000,96.7758433188,147.470080354,71.4287248014,0.7585,0.204,0.5555,0.0275,0.203,0.2305,0.133862179487,0.0275,0.203,0.2305,0.133862179487,0.0275,0.203,0.2305,0.133862179487,0.0275,0.203,0.2305,0.133862179487,0.0275,0.203,0.2305,0.133862179487,0.0275,0.203,0.2305,0.133862179487
35200000,97.0748453917,148.833244757,71.195645709,0.7605,0.203,0.5615,0.0135,0.2015,0.215,0.0666025641026,0.0135,0.2015,0.215,0.0666025641026,0.0135,0.2015,0.215,0.0666025641026,0.0135,0.1855,0.199,0.0735955710956,0.0135,0.1855,0.199,0.0735955710956,0.0135,0.1855,0.199,0.0735955710956
