ID,mbp,sbp,dbp,cp,sut,dt,dt10,st10,st10_p_dt10,st10_d_dt10,dt25,st25,st25_p_dt25,st25_d_dt25,dt33,st33,st33_p_dt33,st33_d_dt33,dt50,st50,st50_p_dt50,st50_d_dt50,dt66,st66,st66_p_dt66,st66_d_dt66,dt75,st75,st75_p_dt75,st75_d_dt75
34040000,92.7211374295,128.288342072,74.9375351082,0.7765,0.2205,0.5475,0.0215,0.2175,0.239,0.105469955769,0.0215,0.2175,0.239,0.105469955769,0.0215,0.2105,0.232,0.10784767316,0.021,0.2105,0.2315,0.106427218615,0.021,0.2105,0.2315,0.106427218615,0.021,0.2105,0.2315,0.106427218615
34040000,93.8208554447,131.09450846,75.1840289372,0.7415,0.2155,0.5265,0.029,0.212,0.241,0.138788819876,0.029,0.212,0.241,0.138788819876,0.029,0.212,0.241,0.138788819876,0.029,0.212,0.241,0.138788819876,0.029,0.212,0.241,0.138788819876,0.029,0.212,0.241,0.138788819876
34040000,94.0092945736,130.620264623,75.703809549,0.7685,0.2,0.566,0.0225,0.1735,0.196,0.131569070391,0.0225,0.1725,0.195,0.132819070391,0.0225,0.1725,0.195,0.132819070391,0.0225,0.1725,0.195,0.132819070391,0.0225,0.1725,0.195,0.132819070391,0.0225,0.1725,0.195,0.132819070391
34040000,94.8206844382,132.513333722,75.9743597962,0.7675,0.206,0.5625,0.015,0.2,0.215,0.075025083612,0.013,0.2,0.213,0.065025083612,0.013,0.2,0.213,0.065025083612,0.013,0.2,0.213,0.065025083612,0.013,0.2,0.213,0.065025083612,0.013,0.2,0.213,0.065025083612
34040000,95.4118679139,133.393416922,76.4210934098,0.737,0.2125,0.543,0.016,0.2055,0.2215,0.0765666971917,0.016,0.2055,0.2215,0.0765666971917,0.016,0.2055,0.2215,0.0765666971917,0.016,0.2055,0.2215,0.0765666971917,0.016,0.2055,0.2215,0.0765666971917,0.016,0.2055,0.2215,0.0765666971917
34040000,95.956055749,133.682692631,77.0927373082,0.736,0.235,0.447,0.019,0.2295,0.2485,0.0855146121994,0.019,0.2295,0.2485,0.0855146121994,0.019,0.2295,0.2485,0.0855146121994,0.019,0.2295,0.2485,0.0855146121994,0.015,0.2295,0.2445,0.0736098502946,0.015,0.2295,0.2445,0.0736098502946
34040000,96.71940904,134.343537969,77.9073445757,0.7135,0.241,0.4985,0.0085,0.2275,0.236,0.0385025154647,0.0085,0.2275,0.236,0.0385025154647,0.0085,0.2275,0.236,0.0385025154647,0.0085,0.2275,0.236,0.0385025154647,0.0085,0.2275,0.236,0.0385025154647,0.0085,0.2275,0.236,0.0385025154647
34040000,96.9967259543,136.965749235,77.0122143141,0.76,0.2135,0.557,0.019,0.198,0.217,0.0951247544726,0.019,0.198,0.217,0.0951247544726,0.019,0.198,0.217,0.0951247544726,0.019,0.198,0.217,0.0951247544726,0.019,0.198,0.217,0.0951247544726,0.019,0.198,0.217,0.0951247544726
34040000,97.1019150426,135.589697146,77.8580239909,0.7195,0.264,0.5305,0.009,0.2545,0.2635,0.0385830026455,0.009,0.2545,0.2635,0.0385830026455,0.009,0.2545,0.2635,0.0385830026455,0.009,0.2545,0.2635,0.0385830026455,0.009,0.2545,0.2635,0.0385830026455,0.009,0.2545,0.2635,0.0385830026455
34040000,97.1961629615,135.338666967,78.1249109587,0.7415,0.224,0.512,0.013,0.22,0.233,0.0613636363636,0.013,0.22,0.233,0.0613636363636,0.013,0.22,0.233,0.0613636363636,0.013,0.22,0.233,0.0613636363636,0.013,0.216,0.229,0.0627881377881,0.013,0.216,0.229,0.0627881377881
34040000,97.7595218848,137.149310861,78.0646273966,0.7265,0.2445,0.509,0.018,0.2395,0.2575,0.0734171499796,0.018,0.2395,0.2575,0.0734171499796,0.018,0.2395,0.2575,0.0734171499796,0.018,0.2395,0.2575,0.0734171499796,0.018,0.2395,0.2575,0.0734171499796,0.018,0.2395,0.2575,0.0734171499796
34040000,98.2358855881,138.426352127,78.1406523187,0.75,0.349,0.5295,0.014,0.3365,0.3505,0.0504910714286,0.014,0.3365,0.3505,0.0504910714286,0.014,0.3365,0.3505,0.0504910714286,0.014,0.3365,0.3505,0.0504910714286,0.014,0.3365,0.3505,0.0504910714286,0.014,0.3365,0.3505,0.0504910714286
34040000,98.3124297836,136.214907885,79.3611907329,0.7505,0.268,0.4255,0.0295,0.265,0.2945,0.108138866589,0.0295,0.265,0.2945,0.108138866589,0.0295,0.265,0.2945,0.108138866589,0.0295,0.265,0.2945,0.108138866589,0.0295,0.265,0.2945,0.108138866589,0.0295,0.265,0.2945,0.108138866589
34040000,98.7321805289,138.206509643,78.9950159719,0.748,0.252,0.54,0.0165,0.2375,0.254,0.0732049291288,0.0165,0.2375,0.254,0.0732049291288,0.0165,0.2375,0.254,0.0732049291288,0.0165,0.2375,0.254,0.0732049291288,0.0165,0.2375,0.254,0.0732049291288,0.0165,0.2375,0.254,0.0732049291288
34040000,98.9950117388,139.160538429,78.9122483939,0.7375,0.209,0.542,0.0185,0.2035,0.222,0.0937268518519,0.0185,0.2035,0.222,0.0937268518519,0.0185,0.2035,0.222,0.0937268518519,0.0185,0.2035,0.222,0.0937268518519,0.0185,0.2025,0.221,0.0941435185185,0.0185,0.2025,0.221,0.0941435185185
34040000,99.1753748706,139.60989588,78.9581143658,0.7515,0.2065,0.549,0.0115,0.195,0.2065,0.0593628312107,0.0115,0.195,0.2065,0.0593628312107,0.0115,0.195,0.2065,0.0593628312107,0.0115,0.195,0.2065,0.0593628312107,0.0115,0.195,0.2065,0.0593628312107,0.0115,0.195,0.2065,0.0593628312107
34040000,99.3184249543,140.520682407,78.717296228,0.7595,0.199,0.5535,0.011,0.185,0.196,0.0593206793207,0.011,0.185,0.196,0.0593206793207,0.011,0.185,0.196,0.0593206793207,0.011,0.185,0.196,0.0593206793207,0.011,0.185,0.196,0.0593206793207,0.011,0.185,0.196,0.0593206793207
34040000,99.4105512757,139.897453496,79.1671001654,0.7405,0.2125,0.5265,0.0125,0.211,0.2235,0.0602504600874,0.0125,0.211,0.2235,0.0602504600874,0.0125,0.211,0.2235,0.0602504600874,0.0125,0.211,0.2235,0.0602504600874,0.0125,0.211,0.2235,0.0602504600874,0.0125,0.211,0.2235,0.0602504600874
34040000,100.344266144,141.617452356,79.7076730381,0.838,0.2015,0.6135,0.0105,0.17,0.1805,0.0616552416881,0.0105,0.17,0.1805,0.0616552416881,0.0105,0.17,0.1805,0.0616552416881,0.0105,0.17,0.1805,0.0616552416881,0.0105,0.17,0.1805,0.0616552416881,0.0105,0.17,0.1805,0.0616552416881
34040000,100.851594256,141.745164019,80.4048093742,0.753,0.202,0.552,0.0085,0.193,0.2015,0.0447962454212,0.0085,0.193,0.2015,0.0447962454212,0.0085,0.193,0.2015,0.0447962454212,0.0085,0.193,0.2015,0.0447962454212,0.0085,0.193,0.2015,0.0447962454212,0.0085,0.193,0.2015,0.0447962454212
34040000,101.168172284,142.950178859,80.2771689969,0.7645,0.202,0.559,0.016,0.2,0.216,0.0818394648829,0.016,0.2,0.216,0.0818394648829,0.016,0.2,0.216,0.0818394648829,0.016,0.2,0.216,0.0818394648829,0.016,0.2,0.216,0.0818394648829,0.016,0.2,0.216,0.0818394648829
34120000,97.3698397558,131.313832847,80.39784321,0.781,0.2035,0.579,0.009,0.2025,0.2115,0.0445272435897,0.009,0.2025,0.2115,0.0445272435897,0.009,0.2025,0.2115,0.0445272435897,0.009,0.2025,0.2115,0.0445272435897,0.009,0.2025,0.2115,0.0445272435897,0.009,0.2025,0.2115,0.0445272435897
34120000,98.6551897672,139.176881982,78.3943436596,0.7665,0.204,0.573,0.0195,0.1965,0.216,0.104840686275,0.0195,0.1965,0.216,0.104840686275,0.0195,0.1965,0.216,0.104840686275,0.0195,0.1965,0.216,0.104840686275,0.0195,0.1965,0.216,0.104840686275,0.0195,0.1965,0.216,0.104840686275
34120000,99.0245020998,133.665796472,81.7038549137,0.769,0.204,0.567,0.012,0.2035,0.2155,0.0586538461538,0.012,0.2035,0.2155,0.0586538461538,0.012,0.2035,0.2155,0.0586538461538,0.012,0.2035,0.2155,0.0586538461538,0.012,0.2035,0.2155,0.0586538461538,0.012,0.2035,0.2155,0.0586538461538
34120000,99.3171613671,140.458986164,78.7462489685,0.779,0.2025,0.5835,0.018,0.1815,0.1995,0.101396154641,0.018,0.1815,0.1995,0.101396154641,0.018,0.1815,0.1995,0.101396154641,0.018,0.1815,0.1995,0.101396154641,0.018,0.1815,0.1995,0.101396154641,0.018,0.1815,0.1995,0.101396154641
34120000,99.4002417535,133.693287456,82.2537189024,0.773,0.201,0.572,0.012,0.187,0.199,0.0654058441558,0.012,0.185,0.197,0.0663528138528,0.012,0.185,0.197,0.0663528138528,0.012,0.185,0.197,0.0663528138528,0.012,0.185,0.197,0.0663528138528,0.012,0.185,0.197,0.0663528138528
34120000,100.492566558,141.744762266,79.8664687043,0.768,0.274,0.532,0.018,0.272,0.29,0.0685925713779,0.018,0.272,0.29,0.0685925713779,0.018,0.272,0.29,0.0685925713779,0.018,0.272,0.29,0.0685925713779,0.018,0.272,0.29,0.0685925713779,0.018,0.272,0.29,0.0685925713779
34120000,100.570830031,136.340266981,82.6861115565,0.756,0.206,0.549,0.0135,0.201,0.2145,0.0681891025641,0.0135,0.201,0.2145,0.0681891025641,0.0135,0.201,0.2145,0.0681891025641,0.0135,0.201,0.2145,0.0681891025641,0.0135,0.201,0.2145,0.0681891025641,0.0135,0.201,0.2145,0.0681891025641
34120000,101.056640993,142.823893604,80.1730146866,0.777,0.191,0.5945,0.0115,0.175,0.1865,0.0646376811594,0.0115,0.175,0.1865,0.0646376811594,0.0115,0.175,0.1865,0.0646376811594,0.0115,0.175,0.1865,0.0646376811594,0.0115,0.175,0.1865,0.0646376811594,0.0115,0.175,0.1865,0.0646376811594
34120000,101.261034118,141.975097774,80.9040022904,0.7355,0.2635,0.5495,0.0125,0.2595,0.272,0.0492775878645,0.0125,0.2595,0.272,0.0492775878645,0.0125,0.2595,0.272,0.0492775878645,0.0125,0.2595,0.272,0.0492775878645,0.0125,0.2555,0.268,0.0499186135056,0.0125,0.2555,0.268,0.0499186135056
34120000,101.364022389,142.79686363,80.6476017686,0.747,0.208,0.566,0.0105,0.184,0.1945,0.0626354489164,0.0105,0.184,0.1945,0.0626354489164,0.0105,0.184,0.1945,0.0626354489164,0.0105,0.184,0.1945,0.0626354489164,0.0105,0.184,0.1945,0.0626354489164,0.0105,0.184,0.1945,0.0626354489164
34120000,101.580788407,133.29358597,85.724389625,0.755,0.201,0.551,0.013,0.192,0.205,0.0684782608696,0.013,0.192,0.205,0.0684782608696,0.013,0.192,0.205,0.0684782608696,0.013,0.192,0.205,0.0684782608696,0.013,0.192,0.205,0.0684782608696,0.013,0.192,0.205,0.0684782608696
34120000,102.048030239,137.407970466,84.3680601259,0.777,0.2095,0.568,0.013,0.2065,0.2195,0.0630929487179,0.013,0.2065,0.2195,0.0630929487179,0.013,0.2065,0.2195,0.0630929487179,0.013,0.2065,0.2195,0.0630929487179,0.013,0.2065,0.2195,0.0630929487179,0.013,0.2065,0.2195,0.0630929487179
34120000,103.351577335,147.148281856,81.4532250749,0.805,0.259,0.5345,0.0225,0.2395,0.262,0.100877767302,0.0225,0.2395,0.262,0.100877767302,0.0225,0.2395,0.262,0.100877767302,0.0225,0.2395,0.262,0.100877767302,0.0225,0.2395,0.262,0.100877767302,0.0225,0.2395,0.262,0.100877767302
34120000,103.396457258,147.158334786,81.5155184946,0.764,0.171,0.567,0.013,0.169,0.182,0.0768398268398,0.013,0.169,0.182,0.0768398268398,0.013,0.169,0.182,0.0768398268398,0.013,0.169,0.182,0.0768398268398,0.013,0.169,0.182,0.0768398268398,0.013,0.169,0.182,0.0768398268398
34120000,103.4962018,136.342716889,87.0729442558,0.736,0.202,0.5485,0.014,0.1975,0.2115,0.0705298913043,0.014,0.1975,0.2115,0.0705298913043,0.014,0.1975,0.2115,0.0705298913043,0.014,0.1975,0.2115,0.0705298913043,0.014,0.1975,0.2115,0.0705298913043,0.014,0.1975,0.2115,0.0705298913043
34120000,103.712460601,139.864451286,85.6364652579,0.7625,0.203,0.5605,0.0185,0.2015,0.22,0.0933315914158,0.0185,0.2015,0.22,0.0933315914158,0.0185,0.2015,0.22,0.0933315914158,0.0185,0.2015,0.22,0.0933315914158,0.0185,0.2015,0.22,0.0933315914158,0.0185,0.2015,0.22,0.0933315914158
34120000,104.021724865,147.069185871,82.4979943623,0.777,0.302,0.58,0.0155,0.296,0.3115,0.0583662422093,0.0155,0.296,0.3115,0.0583662422093,0.0155,0.296,0.3115,0.0583662422093,0.0155,0.296,0.3115,0.0583662422093,0.0155,0.296,0.3115,0.0583662422093,0.0155,0.296,0.3115,0.0583662422093
34120000,104.355718776,139.621309227,86.722923551,0.7465,0.2035,0.544,0.012,0.1895,0.2015,0.0628849637681,0.012,0.1895,0.2015,0.0628849637681,0.012,0.1895,0.2015,0.0628849637681,0.012,0.1895,0.2015,0.0628849637681,0.012,0.1895,0.2015,0.0628849637681,0.012,0.1895,0.2015,0.0628849637681
34120000,105.106870111,139.353432073,87.9835891302,0.759,0.2,0.564,0.013,0.186,0.199,0.0695611001318,0.013,0.186,0.199,0.0695611001318,0.013,0.186,0.199,0.0695611001318,0.013,0.186,0.199,0.0695611001318,0.013,0.186,0.199,0.0695611001318,0.013,0.186,0.199,0.0695611001318
34120000,105.269188705,148.753185608,83.5271902535,0.7615,0.1855,0.564,0.018,0.1725,0.1905,0.111492413466,0.018,0.1725,0.1905,0.111492413466,0.018,0.1725,0.1905,0.111492413466,0.018,0.1725,0.1905,0.111492413466,0.018,0.1725,0.1905,0.111492413466,0.018,0.1725,0.1905,0.111492413466
34120000,106.296221974,141.634512188,88.6270768675,0.7845,0.206,0.584,0.0145,0.197,0.2115,0.0733897714604,0.0145,0.197,0.2115,0.0733897714604,0.0145,0.197,0.2115,0.0733897714604,0.0145,0.197,0.2115,0.0733897714604,0.0145,0.195,0.2095,0.0743779137529,0.0145,0.195,0.2095,0.0743779137529
34120000,106.94699967,140.899703226,89.9706478915,0.7485,0.2045,0.547,0.012,0.2015,0.2135,0.0606392837235,0.012,0.2015,0.2135,0.0606392837235,0.012,0.2015,0.2135,0.0606392837235,0.012,0.2015,0.2135,0.0606392837235,0.012,0.2015,0.2135,0.0606392837235,0.012,0.2015,0.2135,0.0606392837235
34120000,107.579043626,142.057518749,90.3398060648,0.7355,0.206,0.5365,0.0085,0.1935,0.202,0.0439277751234,0.0085,0.1905,0.199,0.0447172488076,0.0085,0.1905,0.199,0.0447172488076,0.0085,0.1905,0.199,0.0447172488076,0.0085,0.1905,0.199,0.0447172488076,0.0085,0.1905,0.199,0.0447172488076
34120000,107.813093811,139.922711419,91.7582850076,0.729,0.198,0.5245,0.0095,0.197,0.2065,0.048125,0.0095,0.197,0.2065,0.048125,0.0095,0.197,0.2065,0.048125,0.0095,0.197,0.2065,0.048125,0.0095,0.197,0.2065,0.048125,0.0095,0.197,0.2065,0.048125
34120000,109.465851449,145.091554399,91.6529999744,0.746,0.2025,0.5455,0.0165,0.189,0.2055,0.0872463768116,0.0165,0.189,0.2055,0.0872463768116,0.0165,0.189,0.2055,0.0872463768116,0.0165,0.189,0.2055,0.0872463768116,0.0165,0.189,0.2055,0.0872463768116,0.0165,0.189,0.2055,0.0872463768116
34120000,109.838283598,145.628419702,91.9432155466,0.72,0.1995,0.5245,0.0145,0.1835,0.198,0.0777931488801,0.0145,0.1835,0.198,0.0777931488801,0.0145,0.1835,0.198,0.0777931488801,0.0145,0.1835,0.198,0.0777931488801,0.0145,0.1835,0.198,0.0777931488801,0.0145,0.1835,0.198,0.0777931488801
34160000,93.8992563056,138.222835338,71.7374667895,0.7705,0.207,0.558,0.0165,0.1965,0.213,0.0809105221469,0.0165,0.1965,0.213,0.0809105221469,0.0165,0.1965,0.213,0.0809105221469,0.0165,0.1965,0.213,0.0809105221469,0.0165,0.1965,0.213,0.0809105221469,0.0165,0.1965,0.213,0.0809105221469
34160000,94.3553797868,120.529066924,81.2685362183,0.729,0.198,0.53,0.022,0.197,0.219,0.111875,0.022,0.197,0.219,0.111875,0.022,0.197,0.219,0.111875,0.022,0.197,0.219,0.111875,0.022,0.197,0.219,0.111875,0.022,0.197,0.219,0.111875
34160000,94.8440609495,134.471491961,75.0303454438,0.7315,0.2005,0.5285,0.009,0.198,0.207,0.0454166666667,0.009,0.198,0.207,0.0454166666667,0.009,0.198,0.207,0.0454166666667,0.009,0.198,0.207,0.0454166666667,0.009,0.198,0.207,0.0454166666667,0.009,0.198,0.207,0.0454166666667
34160000,95.1520285702,138.425942747,73.5150714818,0.727,0.1945,0.5375,0.008,0.183,0.191,0.043897044984,0.008,0.183,0.191,0.043897044984,0.008,0.183,0.191,0.043897044984,0.008,0.183,0.191,0.043897044984,0.008,0.183,0.191,0.043897044984,0.008,0.183,0.191,0.043897044984
34160000,96.9522088758,133.626521212,78.6150527076,0.732,0.195,0.54,0.0375,0.189,0.2265,0.196115967366,0.0375,0.189,0.2265,0.196115967366,0.0375,0.189,0.2265,0.196115967366,0.0375,0.189,0.2265,0.196115967366,0.0375,0.189,0.2265,0.196115967366,0.0375,0.189,0.2265,0.196115967366
34160000,97.6015624838,142.27903165,75.2628279005,0.718,0.1965,0.375,0.016,0.1845,0.2005,0.0893843656344,0.016,0.1845,0.2005,0.0893843656344,0.016,0.1845,0.2005,0.0893843656344,0.012,0.1845,0.1965,0.0666570929071,0.012,0.1845,0.1965,0.0666570929071,0.012,0.1845,0.1965,0.0666570929071
34160000,97.7742441329,142.338821408,75.4919554954,0.7005,0.199,0.504,0.01,0.193,0.203,0.0519602272727,0.01,0.193,0.203,0.0519602272727,0.01,0.193,0.203,0.0519602272727,0.01,0.193,0.203,0.0519602272727,0.01,0.193,0.203,0.0519602272727,0.01,0.193,0.203,0.0519602272727
34160000,98.0116444914,143.104472607,75.4652304337,0.722,0.2015,0.5305,0.0115,0.196,0.2075,0.0598913043478,0.0115,0.196,0.2075,0.0598913043478,0.0115,0.196,0.2075,0.0598913043478,0.0115,0.196,0.2075,0.0598913043478,0.0115,0.196,0.2075,0.0598913043478,0.0115,0.196,0.2075,0.0598913043478
34160000,98.2628294777,134.917949329,79.935269552,0.685,0.221,0.4945,0.016,0.21,0.226,0.0699118589744,0.016,0.21,0.226,0.0699118589744,0.016,0.21,0.226,0.0699118589744,0.016,0.21,0.226,0.0699118589744,0.016,0.21,0.226,0.0699118589744,0.016,0.21,0.226,0.0699118589744
34160000,103.190283476,147.417348237,81.0767510954,0.689,0.1945,0.32,0.0105,0.1885,0.199,0.055413372859,0.0105,0.1885,0.199,0.055413372859,0.0105,0.1885,0.199,0.055413372859,0.0105,0.1885,0.199,0.055413372859,0.0085,0.1885,0.197,0.0449967061924,0.0085,0.1885,0.197,0.0449967061924
34160000,104.077636823,147.158265936,82.5373222665,0.767,0.206,0.519,0.0105,0.195,0.2055,0.0583193277311,0.0105,0.195,0.2055,0.0583193277311,0.0105,0.195,0.2055,0.0583193277311,0.0105,0.195,0.2055,0.0583193277311,0.0105,0.195,0.2055,0.0583193277311,0.0105,0.195,0.2055,0.0583193277311
34160000,105.117378945,150.774302007,82.2889174145,0.73,0.198,0.5255,0.0115,0.196,0.2075,0.0591897045983,0.0115,0.196,0.2075,0.0591897045983,0.0115,0.196,0.2075,0.0591897045983,0.0115,0.196,0.2075,0.0591897045983,0.0115,0.196,0.2075,0.0591897045983,0.0115,0.196,0.2075,0.0591897045983
34160000,105.370676228,150.183410619,82.9643090322,0.682,0.1945,0.4945,0.0235,0.1875,0.211,0.124292166167,0.0235,0.1875,0.211,0.124292166167,0.0235,0.1875,0.211,0.124292166167,0.0235,0.1875,0.211,0.124292166167,0.0235,0.1875,0.211,0.124292166167,0.0235,0.1875,0.211,0.124292166167
34200000,91.5787152582,133.877517373,70.4293142007,0.805,0.216,0.593,0.0105,0.2135,0.224,0.0504807692308,0.0105,0.2135,0.224,0.0504807692308,0.0105,0.2135,0.224,0.0504807692308,0.0105,0.2135,0.224,0.0504807692308,0.0105,0.2135,0.224,0.0504807692308,0.0105,0.2135,0.224,0.0504807692308
34200000,91.6254129566,132.953383132,70.9614278686,0.8035,0.2595,0.5835,0.0205,0.25,0.2705,0.0976240164501,0.0205,0.25,0.2705,0.0976240164501,0.0205,0.25,0.2705,0.0976240164501,0.0205,0.25,0.2705,0.0976240164501,0.0205,0.25,0.2705,0.0976240164501,0.0205,0.25,0.2705,0.0976240164501
34200000,93.4630508843,135.889360969,72.2498958419,0.754,0.224,0.55,0.0145,0.206,0.2205,0.0725576597316,0.0145,0.206,0.2205,0.0725576597316,0.0145,0.206,0.2205,0.0725576597316,0.0145,0.206,0.2205,0.0725576597316,0.0145,0.206,0.2205,0.0725576597316,0.0145,0.206,0.2205,0.0725576597316
34200000,93.5316736385,137.068316259,71.7633523281,0.822,0.2215,0.603,0.02,0.2195,0.2395,0.0919103581604,0.02,0.2195,0.2395,0.0919103581604,0.02,0.2195,0.2395,0.0919103581604,0.02,0.2195,0.2395,0.0919103581604,0.02,0.2195,0.2395,0.0919103581604,0.02,0.2195,0.2395,0.0919103581604
34200000,93.7581356806,138.138091795,71.5681576234,0.835,0.2235,0.613,0.009,0.21,0.219,0.0436762311762,0.009,0.21,0.219,0.0436762311762,0.009,0.21,0.219,0.0436762311762,0.009,0.21,0.219,0.0436762311762,0.009,0.21,0.219,0.0436762311762,0.009,0.21,0.219,0.0436762311762
34200000,94.310996233,136.387518481,73.2727351092,0.7575,0.237,0.5015,0.019,0.2325,0.2515,0.0855534511785,0.019,0.2325,0.2515,0.0855534511785,0.019,0.2325,0.2515,0.0855534511785,0.019,0.2325,0.2515,0.0855534511785,0.019,0.2325,0.2515,0.0855534511785,0.019,0.2325,0.2515,0.0855534511785
34200000,95.3401613373,141.994142873,72.0131705695,0.8375,0.213,0.623,0.0095,0.2095,0.219,0.047272461335,0.0095,0.2095,0.219,0.047272461335,0.0095,0.2095,0.219,0.047272461335,0.0095,0.2095,0.219,0.047272461335,0.0095,0.2095,0.219,0.047272461335,0.0095,0.2095,0.219,0.047272461335
34200000,95.7617116327,139.139890753,74.0726220727,0.7965,0.234,0.5775,0.009,0.2295,0.2385,0.0399863293815,0.009,0.2295,0.2385,0.0399863293815,0.009,0.2295,0.2385,0.0399863293815,0.009,0.2295,0.2385,0.0399863293815,0.009,0.2295,0.2385,0.0399863293815,0.009,0.2295,0.2385,0.0399863293815
34200000,95.9700719368,141.508288131,73.2009638398,0.819,0.2185,0.6005,0.01,0.205,0.215,0.0484656084656,0.01,0.205,0.215,0.0484656084656,0.01,0.205,0.215,0.0484656084656,0.01,0.205,0.215,0.0484656084656,0.01,0.205,0.215,0.0484656084656,0.01,0.205,0.215,0.0484656084656
34200000,96.7644123023,142.170705161,74.0612658728,0.806,0.2095,0.5845,0.0135,0.198,0.2115,0.0682484825963,0.0135,0.198,0.2115,0.0682484825963,0.0135,0.198,0.2115,0.0682484825963,0.0135,0.198,0.2115,0.0682484825963,0.0135,0.198,0.2115,0.0682484825963,0.0135,0.198,0.2115,0.0682484825963
34200000,96.9234925123,140.581097619,75.094689959,0.7925,0.2145,0.572,0.037,0.2095,0.2465,0.173084045584,0.037,0.2095,0.2465,0.173084045584,0.037,0.2095,0.2465,0.173084045584,0.013,0.2095,0.2225,0.0619729344729,0.013,0.2095,0.2225,0.0619729344729,0.013,0.2095,0.2225,0.0619729344729
34200000,97.3461884918,142.082955145,74.9778051652,0.775,0.213,0.557,0.0155,0.204,0.2195,0.0763058748404,0.0155,0.204,0.2195,0.0763058748404,0.0155,0.204,0.2195,0.0763058748404,0.0155,0.204,0.2195,0.0763058748404,0.0155,0.204,0.2195,0.0763058748404,0.0155,0.204,0.2195,0.0763058748404
34200000,97.3687623898,143.546560361,74.2798634041,0.83,0.2455,0.5955,0.0175,0.242,0.2595,0.0751236484932,0.0175,0.242,0.2595,0.0751236484932,0.0175,0.242,0.2595,0.0751236484932,0.0175,0.242,0.2595,0.0751236484932,0.0175,0.242,0.2595,0.0751236484932,0.0175,0.242,0.2595,0.0751236484932
34200000,97.9450845255,143.32953679,75.2528583934,0.801,0.217,0.5925,0.028,0.212,0.24,0.13345467033,0.028,0.212,0.24,0.13345467033,0.028,0.212,0.24,0.13345467033,0.028,0.212,0.24,0.13345467033,0.028,0.212,0.24,0.13345467033,0.028,0.212,0.24,0.13345467033
34200000,98.4948798912,145.225235631,75.1297020215,0.8105,0.218,0.596,0.014,0.217,0.231,0.0643823768824,0.014,0.217,0.231,0.0643823768824,0.014,0.217,0.231,0.0643823768824,0.014,0.217,0.231,0.0643823768824,0.014,0.217,0.231,0.0643823768824,0.014,0.207,0.221,0.0666717541718
34200000,98.499571107,145.418011169,75.0403510762,0.81,0.2225,0.5865,0.011,0.22,0.231,0.0510236060236,0.011,0.22,0.231,0.0510236060236,0.011,0.22,0.231,0.0510236060236,0.011,0.22,0.231,0.0510236060236,0.011,0.22,0.231,0.0510236060236,0.011,0.22,0.231,0.0510236060236
34200000,98.6528618834,146.309451268,74.8245671911,0.7625,0.2105,0.561,0.008,0.199,0.207,0.0404887820513,0.008,0.199,0.207,0.0404887820513,0.008,0.199,0.207,0.0404887820513,0.008,0.199,0.207,0.0404887820513,0.008,0.199,0.207,0.0404887820513,0.008,0.199,0.207,0.0404887820513
34200000,98.6586500925,148.21773488,73.8791076987,0.755,0.211,0.478,0.0145,0.209,0.2235,0.0737433862434,0.0145,0.209,0.2235,0.0737433862434,0.0145,0.209,0.2235,0.0737433862434,0.0145,0.209,0.2235,0.0737433862434,0.0145,0.209,0.2235,0.0737433862434,0.0145,0.209,0.2235,0.0737433862434
34200000,98.9420552942,145.920933404,75.4526162393,0.7885,0.216,0.5775,0.022,0.2075,0.2295,0.104493666056,0.022,0.2075,0.2295,0.104493666056,0.022,0.2075,0.2295,0.104493666056,0.022,0.2075,0.2295,0.104493666056,0.022,0.2075,0.2295,0.104493666056,0.022,0.2075,0.2295,0.104493666056
34200000,99.2566641714,147.168440159,75.3007761777,0.796,0.2165,0.5475,0.011,0.2045,0.2155,0.0529100529101,0.011,0.2045,0.2155,0.0529100529101,0.011,0.2045,0.2155,0.0529100529101,0.011,0.2045,0.2155,0.0529100529101,0.011,0.2045,0.2155,0.0529100529101,0.011,0.2045,0.2155,0.0529100529101
34200000,99.2640780784,146.847089136,75.4725725499,0.8175,0.2135,0.599,0.011,0.209,0.22,0.0522547822548,0.011,0.209,0.22,0.0522547822548,0.011,0.209,0.22,0.0522547822548,0.011,0.209,0.22,0.0522547822548,0.011,0.209,0.22,0.0522547822548,0.011,0.209,0.22,0.0522547822548
34200000,99.2872212896,145.651591179,76.1050363451,0.7695,0.2035,0.5565,0.018,0.202,0.22,0.0863888888889,0.018,0.202,0.22,0.0863888888889,0.018,0.202,0.22,0.0863888888889,0.018,0.202,0.22,0.0863888888889,0.018,0.202,0.22,0.0863888888889,0.018,0.202,0.22,0.0863888888889
34200000,99.6998377013,146.411476686,76.3440182092,0.789,0.2175,0.5825,0.0125,0.1965,0.209,0.0648495978659,0.0125,0.1965,0.209,0.0648495978659,0.0125,0.1965,0.209,0.0648495978659,0.0125,0.1965,0.209,0.0648495978659,0.0125,0.1965,0.209,0.0648495978659,0.0125,0.1965,0.209,0.0648495978659
34200000,100.164710353,147.01768188,76.7382245889,0.817,0.217,0.604,0.033,0.2125,0.2455,0.15771494709,0.033,0.2125,0.2455,0.15771494709,0.033,0.2125,0.2455,0.15771494709,0.033,0.2125,0.2455,0.15771494709,0.033,0.2125,0.2455,0.15771494709,0.033,0.2125,0.2455,0.15771494709
34200000,100.704341708,148.374558952,76.8692330863,0.7635,0.2195,0.4935,0.008,0.2045,0.2125,0.039341068553,0.008,0.2045,0.2125,0.039341068553,0.008,0.2045,0.2125,0.039341068553,0.008,0.2045,0.2125,0.039341068553,0.008,0.2045,0.2125,0.039341068553,0.008,0.2045,0.2125,0.039341068553
34200000,101.814594449,148.157789361,78.6429969921,0.787,0.216,0.57,0.01,0.211,0.221,0.0468686406186,0.01,0.211,0.221,0.0468686406186,0.01,0.211,0.221,0.0468686406186,0.01,0.211,0.221,0.0468686406186,0.01,0.211,0.221,0.0468686406186,0.01,0.211,0.221,0.0468686406186
34200000,101.904867733,148.840807476,78.4368978614,0.784,0.218,0.563,0.009,0.2055,0.2145,0.043720457783,0.009,0.2055,0.2145,0.043720457783,0.009,0.2055,0.2145,0.043720457783,0.009,0.2055,0.2145,0.043720457783,0.009,0.2055,0.2145,0.043720457783,0.009,0.2055,0.2145,0.043720457783
34200000,102.005652228,147.436574469,79.2901911079,0.802,0.211,0.5885,0.0115,0.2065,0.218,0.0561284639274,0.0115,0.2065,0.218,0.0561284639274,0.0115,0.2065,0.218,0.0561284639274,0.0115,0.2065,0.218,0.0561284639274,0.0115,0.2065,0.218,0.0561284639274,0.0115,0.2065,0.218,0.0561284639274
34200000,102.283564214,148.988237665,78.9312274884,0.801,0.2105,0.583,0.0195,0.2065,0.226,0.095474537037,0.0195,0.2065,0.226,0.095474537037,0.0195,0.2065,0.226,0.095474537037,0.019,0.2065,0.2255,0.0928703703704,0.019,0.2065,0.2255,0.0928703703704,0.019,0.2065,0.2255,0.0928703703704
34200000,102.296233881,149.461273153,78.7137142449,0.8165,0.2205,0.599,0.011,0.218,0.229,0.0504759361009,0.011,0.218,0.229,0.0504759361009,0.011,0.218,0.229,0.0504759361009,0.011,0.218,0.229,0.0504759361009,0.011,0.218,0.229,0.0504759361009,0.011,0.218,0.229,0.0504759361009
34200000,102.688879235,148.962918157,79.5518597743,0.8195,0.2135,0.6035,0.012,0.2105,0.2225,0.0565960556047,0.012,0.2105,0.2225,0.0565960556047,0.012,0.2105,0.2225,0.0565960556047,0.012,0.2105,0.2225,0.0565960556047,0.012,0.2105,0.2225,0.0565960556047,0.012,0.2105,0.2225,0.0565960556047
34200000,102.871117985,148.499696056,80.0568289498,0.7645,0.2035,0.417,0.0135,0.188,0.2015,0.0743189102564,0.0135,0.188,0.2015,0.0743189102564,0.0135,0.188,0.2015,0.0743189102564,0.0135,0.188,0.2015,0.0743189102564,0.0135,0.188,0.2015,0.0743189102564,0.0135,0.188,0.2015,0.0743189102564
34200000,103.250001993,149.507679135,80.1211634218,0.773,0.2085,0.5495,0.0095,0.207,0.2165,0.0464105660845,0.0095,0.207,0.2165,0.0464105660845,0.0095,0.207,0.2165,0.0464105660845,0.0095,0.207,0.2165,0.0464105660845,0.0095,0.207,0.2165,0.0464105660845,0.0095,0.207,0.2165,0.0464105660845
34200000,103.272617188,149.443405399,80.1872230816,0.772,0.22,0.552,0.02,0.216,0.236,0.0925925925926,0.02,0.216,0.236,0.0925925925926,0.02,0.216,0.236,0.0925925925926,0.02,0.216,0.236,0.0925925925926,0.02,0.216,0.236,0.0925925925926,0.02,0.216,0.236,0.0925925925926
34200000,103.48529,145.560082426,82.447893787,0.739,0.221,0.4815,0.0295,0.2115,0.241,0.13889041514,0.0295,0.2115,0.241,0.13889041514,0.0295,0.2115,0.241,0.13889041514,0.0295,0.2115,0.241,0.13889041514,0.0295,0.2115,0.241,0.13889041514,0.0295,0.2115,0.241,0.13889041514
34200000,103.571549022,148.83930018,80.9376734434,0.777,0.209,0.567,0.0155,0.2055,0.221,0.0751486013986,0.0155,0.204,0.2195,0.0755971659919,0.0155,0.204,0.2195,0.0755971659919,0.0155,0.204,0.2195,0.0755971659919,0.0155,0.204,0.2195,0.0755971659919,0.0155,0.204,0.2195,0.0755971659919
34200000,103.645785247,137.914028592,86.511663575,0.5965,0.2045,0.4425,0.0145,0.186,0.2005,0.0786762553067,0.0145,0.186,0.2005,0.0786762553067,0.0145,0.186,0.2005,0.0786762553067,0.0145,0.186,0.2005,0.0786762553067,0.0145,0.186,0.2005,0.0786762553067,0.0145,0.186,0.2005,0.0786762553067
34200000,103.712774474,149.705720666,80.7163013776,0.767,0.196,0.559,0.008,0.1905,0.1985,0.0420359848485,0.008,0.1905,0.1985,0.0420359848485,0.008,0.1905,0.1985,0.0420359848485,0.008,0.1905,0.1985,0.0420359848485,0.008,0.1905,0.1985,0.0420359848485,0.008,0.1905,0.1985,0.0420359848485
34200000,103.885758182,147.097039701,82.2801174223,0.755,0.2165,0.563,0.0375,0.215,0.2525,0.174938353473,0.0375,0.215,0.2525,0.174938353473,0.0375,0.215,0.2525,0.174938353473,0.0375,0.215,0.2525,0.174938353473,0.0375,0.215,0.2525,0.174938353473,0.0375,0.215,0.2525,0.174938353473
34200000,103.898135918,149.645526916,81.0244404188,0.797,0.214,0.588,0.013,0.1995,0.2125,0.0657782887402,0.013,0.1995,0.2125,0.0657782887402,0.013,0.1995,0.2125,0.0657782887402,0.013,0.1995,0.2125,0.0657782887402,0.013,0.1995,0.2125,0.0657782887402,0.013,0.1995,0.2125,0.0657782887402
34200000,103.907468785,149.239276931,81.2415647113,0.784,0.2155,0.5775,0.017,0.194,0.211,0.0863751194458,0.017,0.194,0.211,0.0863751194458,0.017,0.194,0.211,0.0863751194458,0.017,0.194,0.211,0.0863751194458,0.017,0.194,0.211,0.0863751194458,0.017,0.194,0.211,0.0863751194458
34200000,104.070743524,147.90306628,82.1545821455,0.755,0.232,0.5465,0.01,0.227,0.237,0.0432396161344,0.01,0.227,0.237,0.0432396161344,0.01,0.227,0.237,0.0432396161344,0.01,0.227,0.237,0.0432396161344,0.01,0.227,0.237,0.0432396161344,0.01,0.227,0.237,0.0432396161344
34200000,104.094315916,149.80895445,81.2369966493,0.722,0.1985,0.513,0.02,0.1915,0.2115,0.104288949275,0.02,0.1915,0.2115,0.104288949275,0.02,0.1915,0.2115,0.104288949275,0.02,0.1915,0.2115,0.104288949275,0.02,0.1915,0.2115,0.104288949275,0.02,0.1915,0.2115,0.104288949275
34200000,104.171479774,148.084640741,82.2148992897,0.7415,0.22,0.534,0.014,0.2175,0.2315,0.0645731583232,0.014,0.2175,0.2315,0.0645731583232,0.014,0.2175,0.2315,0.0645731583232,0.014,0.2175,0.2315,0.0645731583232,0.014,0.2175,0.2315,0.0645731583232,0.014,0.2175,0.2315,0.0645731583232
34200000,104.336013794,149.243057537,81.8824919224,0.779,0.218,0.562,0.009,0.2165,0.2255,0.0417811355311,0.009,0.2165,0.2255,0.0417811355311,0.009,0.2165,0.2255,0.0417811355311,0.009,0.2165,0.2255,0.0417811355311,0.009,0.2165,0.2255,0.0417811355311,0.009,0.2165,0.2255,0.0417811355311
34200000,104.357542155,149.402841469,81.8348924985,0.7705,0.2095,0.5545,0.0175,0.204,0.2215,0.0856374643875,0.0175,0.204,0.2215,0.0856374643875,0.0175,0.204,0.2215,0.0856374643875,0.0175,0.204,0.2215,0.0856374643875,0.0175,0.204,0.2215,0.0856374643875,0.0175,0.204,0.2215,0.0856374643875
34200000,105.047463423,149.471216632,82.8355868179,0.762,0.2175,0.5475,0.0085,0.1975,0.206,0.0431137743094,0.0085,0.1975,0.206,0.0431137743094,0.0085,0.1975,0.206,0.0431137743094,0.0085,0.1975,0.206,0.0431137743094,0.0085,0.1975,0.206,0.0431137743094,0.0085,0.1975,0.206,0.0431137743094
34200000,105.785470184,149.4207767,83.967816926,0.7615,0.223,0.5465,0.016,0.219,0.235,0.0725742757276,0.016,0.219,0.235,0.0725742757276,0.016,0.219,0.235,0.0725742757276,0.016,0.219,0.235,0.0725742757276,0.016,0.219,0.235,0.0725742757276,0.016,0.219,0.235,0.0725742757276
34200000,105.905465141,149.434349628,84.1410228972,0.7485,0.2235,0.5355,0.01,0.2145,0.2245,0.0482462374582,0.01,0.2145,0.2245,0.0482462374582,0.01,0.2145,0.2245,0.0482462374582,0.01,0.2145,0.2245,0.0482462374582,0.01,0.2145,0.2245,0.0482462374582,0.01,0.2145,0.2245,0.0482462374582
34200000,109.147596663,147.61670909,89.9130404493,0.6485,0.1965,0.4325,0.0125,0.1855,0.198,0.0667317575212,0.0125,0.1855,0.198,0.0667317575212,0.0125,0.1855,0.198,0.0667317575212,0.0125,0.1855,0.198,0.0667317575212,0.0125,0.1855,0.198,0.0667317575212,0.0125,0.1855,0.198,0.0667317575212
34200000,109.724843125,149.923354284,89.6255875464,0.7205,0.211,0.5125,0.011,0.202,0.213,0.0564361001318,0.011,0.202,0.213,0.0564361001318,0.011,0.202,0.213,0.0564361001318,0.011,0.202,0.213,0.0564361001318,0.011,0.202,0.213,0.0564361001318,0.011,0.202,0.213,0.0564361001318
34240000,99.8985791454,143.102587079,78.2965751787,0.7935,0.36,0.3075,0.011,0.353,0.364,0.0451243729097,0.011,0.353,0.364,0.0451243729097,0.011,0.353,0.364,0.0451243729097,0.011,0.353,0.364,0.0451243729097,0.011,0.353,0.364,0.0451243729097,0.011,0.353,0.364,0.0451243729097
34240000,99.9893242519,148.035662058,75.966155349,0.7625,0.2045,0.521,0.015,0.202,0.217,0.075235042735,0.015,0.202,0.217,0.075235042735,0.015,0.202,0.217,0.075235042735,0.015,0.202,0.217,0.075235042735,0.015,0.202,0.217,0.075235042735,0.015,0.202,0.217,0.075235042735
34240000,101.593013803,147.55893093,78.6100552395,0.7125,0.207,0.5085,0.0105,0.205,0.2155,0.0514947552448,0.0105,0.205,0.2155,0.0514947552448,0.0105,0.205,0.2155,0.0514947552448,0.0105,0.205,0.2155,0.0514947552448,0.0105,0.205,0.2155,0.0514947552448,0.0105,0.205,0.2155,0.0514947552448
34240000,101.782455328,148.375906918,78.4857295331,0.7205,0.2035,0.513,0.025,0.1975,0.2225,0.125757575758,0.025,0.1975,0.2225,0.125757575758,0.025,0.1975,0.2225,0.125757575758,0.025,0.1975,0.2225,0.125757575758,0.025,0.1975,0.2225,0.125757575758,0.025,0.1975,0.2225,0.125757575758
34240000,102.340560639,149.55063218,78.7355248679,0.7055,0.2,0.509,0.0195,0.1895,0.209,0.10208139234,0.0195,0.1895,0.209,0.10208139234,0.0195,0.1895,0.209,0.10208139234,0.0195,0.1895,0.209,0.10208139234,0.0195,0.1895,0.209,0.10208139234,0.0195,0.1895,0.209,0.10208139234
34240000,102.392004105,148.474123823,79.350944246,0.7085,0.2085,0.511,0.01,0.2005,0.2105,0.0504646164021,0.01,0.2005,0.2105,0.0504646164021,0.01,0.2005,0.2105,0.0504646164021,0.01,0.2005,0.2105,0.0504646164021,0.01,0.2005,0.2105,0.0504646164021,0.01,0.2005,0.2105,0.0504646164021
34240000,102.480195327,148.914462586,79.263061697,0.7265,0.1975,0.531,0.0085,0.189,0.1975,0.0449188311688,0.0085,0.189,0.1975,0.0449188311688,0.0085,0.1885,0.197,0.0450841750842,0.0085,0.1885,0.197,0.0450841750842,0.0085,0.1885,0.197,0.0450841750842,0.0085,0.1885,0.197,0.0450841750842
34240000,103.507723968,149.482514134,80.520328885,0.671,0.2335,0.4665,0.0245,0.222,0.2465,0.139874722317,0.0245,0.222,0.2465,0.139874722317,0.0245,0.222,0.2465,0.139874722317,0.0245,0.222,0.2465,0.139874722317,0.0245,0.222,0.2465,0.139874722317,0.0245,0.222,0.2465,0.139874722317
34240000,104.273869538,149.637264169,81.5921722228,0.6815,0.1955,0.493,0.0195,0.1915,0.211,0.106524209486,0.0195,0.1915,0.211,0.106524209486,0.0195,0.1915,0.211,0.106524209486,0.0195,0.1915,0.211,0.106524209486,0.0195,0.1915,0.211,0.106524209486,0.0195,0.1915,0.211,0.106524209486
34240000,104.939761257,149.575224015,82.6220298787,0.697,0.196,0.4775,0.014,0.1885,0.2025,0.0807163057531,0.014,0.1885,0.2025,0.0807163057531,0.014,0.1885,0.2025,0.0807163057531,0.014,0.1885,0.2025,0.0807163057531,0.014,0.1885,0.2025,0.0807163057531,0.014,0.1885,0.2025,0.0807163057531
34240000,105.27852311,149.19322902,83.3211701549,0.694,0.2525,0.4095,0.019,0.247,0.266,0.0957677057698,0.019,0.247,0.266,0.0957677057698,0.019,0.247,0.266,0.0957677057698,0.019,0.247,0.266,0.0957677057698,0.019,0.247,0.266,0.0957677057698,0.019,0.247,0.266,0.0957677057698
34240000,105.526712438,148.190260634,84.1949383401,0.7065,0.2015,0.5,0.011,0.189,0.2,0.0588522256729,0.011,0.189,0.2,0.0588522256729,0.011,0.189,0.2,0.0588522256729,0.011,0.189,0.2,0.0588522256729,0.011,0.189,0.2,0.0588522256729,0.011,0.189,0.2,0.0588522256729
34240000,107.236367527,150.057767414,85.8256675828,0.6585,0.2385,0.4475,0.0225,0.2365,0.259,0.106362507515,0.0105,0.2365,0.247,0.0527910789433,0.0105,0.2365,0.247,0.0527910789433,0.0105,0.2365,0.247,0.0527910789433,0.0105,0.2365,0.247,0.0527910789433,0.0105,0.2365,0.247,0.0527910789433
34480000,95.1850327703,131.219499359,77.1677994758,0.636,0.198,0.4725,0.014,0.197,0.211,0.0714335664336,0.014,0.197,0.211,0.0714335664336,0.014,0.197,0.211,0.0714335664336,0.014,0.197,0.211,0.0714335664336,0.014,0.197,0.211,0.0714335664336,0.014,0.197,0.211,0.0714335664336
34480000,98.8269955927,148.357140685,74.0619230464,0.8045,0.2005,0.604,0.0125,0.193,0.2055,0.0647023809524,0.0125,0.193,0.2055,0.0647023809524,0.0125,0.193,0.2055,0.0647023809524,0.0125,0.193,0.2055,0.0647023809524,0.0125,0.193,0.2055,0.0647023809524,0.0125,0.193,0.2055,0.0647023809524
34480000,98.8397354745,147.380762012,74.5692222057,0.787,0.2045,0.59,0.0095,0.1915,0.201,0.0491227703456,0.0095,0.1915,0.201,0.0491227703456,0.0095,0.1915,0.201,0.0491227703456,0.0095,0.1915,0.201,0.0491227703456,0.0095,0.1915,0.201,0.0491227703456,0.0095,0.1915,0.201,0.0491227703456
34480000,99.3835593711,148.951865313,74.5994064002,0.801,0.196,0.599,0.0115,0.16,0.1715,0.0721071060003,0.0115,0.16,0.1715,0.0721071060003,0.0115,0.16,0.1715,0.0721071060003,0.0115,0.16,0.1715,0.0721071060003,0.0115,0.16,0.1715,0.0721071060003,0.0115,0.16,0.1715,0.0721071060003
34480000,100.051387241,149.479048325,75.3375566983,0.779,0.1975,0.584,0.0155,0.1875,0.203,0.0833926218709,0.0155,0.1875,0.203,0.0833926218709,0.0155,0.1875,0.203,0.0833926218709,0.0155,0.1875,0.203,0.0833926218709,0.0155,0.1875,0.203,0.0833926218709,0.0155,0.1875,0.203,0.0833926218709
34480000,100.107084927,149.986473247,75.1673907678,0.801,0.1995,0.606,0.021,0.1895,0.2105,0.107604166667,0.021,0.1895,0.2105,0.107604166667,0.021,0.1895,0.2105,0.107604166667,0.021,0.1895,0.2105,0.107604166667,0.021,0.1895,0.2105,0.107604166667,0.021,0.1895,0.2105,0.107604166667
34480000,100.124414156,149.42357408,75.4748341947,0.7605,0.1925,0.571,0.011,0.1865,0.1975,0.0583378623188,0.011,0.1865,0.1975,0.0583378623188,0.011,0.1865,0.1975,0.0583378623188,0.011,0.1865,0.1975,0.0583378623188,0.011,0.1865,0.1975,0.0583378623188,0.011,0.1865,0.1975,0.0583378623188
34480000,100.588639686,150.030014401,75.8679523283,0.807,0.1985,0.6075,0.01,0.1965,0.2065,0.0512053571429,0.01,0.1965,0.2065,0.0512053571429,0.01,0.1965,0.2065,0.0512053571429,0.01,0.1965,0.2065,0.0512053571429,0.01,0.1965,0.2065,0.0512053571429,0.01,0.1965,0.2065,0.0512053571429
34480000,100.659330992,148.238922814,76.8695350807,0.8615,0.2325,0.637,0.0125,0.208,0.2205,0.0611948264154,0.0125,0.208,0.2205,0.0611948264154,0.0125,0.208,0.2205,0.0611948264154,0.0125,0.208,0.2205,0.0611948264154,0.0125,0.208,0.2205,0.0611948264154,0.0125,0.208,0.2205,0.0611948264154
34480000,100.678000204,149.746288733,76.1438559393,0.8755,0.2245,0.651,0.0275,0.22,0.2475,0.128288697532,0.0275,0.22,0.2475,0.128288697532,0.0275,0.22,0.2475,0.128288697532,0.0275,0.22,0.2475,0.128288697532,0.0275,0.22,0.2475,0.128288697532,0.0275,0.22,0.2475,0.128288697532
34480000,100.728687994,149.179622314,76.5032208344,0.7565,0.1995,0.561,0.013,0.1825,0.1955,0.0731398809524,0.013,0.1825,0.1955,0.0731398809524,0.013,0.1825,0.1955,0.0731398809524,0.013,0.1825,0.1955,0.0731398809524,0.013,0.1825,0.1955,0.0731398809524,0.013,0.1825,0.1955,0.0731398809524
34480000,100.731947399,149.967125931,76.1143581337,0.8205,0.2,0.6185,0.0085,0.1895,0.198,0.044806547619,0.0085,0.1895,0.198,0.044806547619,0.0085,0.1895,0.198,0.044806547619,0.0085,0.1895,0.198,0.044806547619,0.0085,0.1895,0.198,0.044806547619,0.0085,0.1895,0.198,0.044806547619
34480000,100.801820153,149.718898266,76.3432810957,0.802,0.196,0.603,0.0235,0.194,0.2175,0.119379370629,0.0235,0.194,0.2175,0.119379370629,0.0235,0.194,0.2175,0.119379370629,0.0235,0.194,0.2175,0.119379370629,0.0235,0.194,0.2175,0.119379370629,0.0235,0.194,0.2175,0.119379370629
34480000,101.025646909,150.084393435,76.4962736457,0.814,0.199,0.6145,0.01,0.193,0.203,0.0519499341238,0.01,0.193,0.203,0.0519499341238,0.01,0.193,0.203,0.0519499341238,0.01,0.193,0.203,0.0519499341238,0.01,0.193,0.203,0.0519499341238,0.01,0.193,0.203,0.0519499341238
34480000,101.230958015,149.895095682,76.8988891812,0.8055,0.194,0.6035,0.008,0.191,0.199,0.0419474637681,0.008,0.191,0.199,0.0419474637681,0.008,0.191,0.199,0.0419474637681,0.008,0.191,0.199,0.0419474637681,0.008,0.19,0.198,0.0421739130435,0.008,0.19,0.198,0.0421739130435
34480000,101.961904481,149.824599755,78.0305568441,0.769,0.193,0.5755,0.0095,0.168,0.1775,0.0577754993544,0.0095,0.168,0.1775,0.0577754993544,0.0095,0.168,0.1775,0.0577754993544,0.0095,0.168,0.1775,0.0577754993544,0.0095,0.168,0.1775,0.0577754993544,0.0095,0.168,0.1775,0.0577754993544
34480000,102.187772356,150.158013746,78.2026516605,0.81,0.2005,0.604,0.0095,0.1935,0.203,0.048918997669,0.0095,0.1935,0.203,0.048918997669,0.0095,0.1935,0.203,0.048918997669,0.0095,0.1935,0.203,0.048918997669,0.0095,0.1935,0.203,0.048918997669,0.0095,0.1935,0.203,0.048918997669
34480000,102.562624213,149.842477841,78.9226973987,0.817,0.221,0.593,0.0185,0.2165,0.235,0.0845487382987,0.0185,0.2165,0.235,0.0845487382987,0.0185,0.2165,0.235,0.0845487382987,0.0185,0.2165,0.235,0.0845487382987,0.0185,0.2165,0.235,0.0845487382987,0.0185,0.2165,0.235,0.0845487382987
34480000,103.251181782,150.17549381,79.7890257683,0.794,0.1955,0.591,0.018,0.1955,0.2135,0.0944519927536,0.018,0.1955,0.2135,0.0944519927536,0.018,0.1955,0.2135,0.0944519927536,0.018,0.1955,0.2135,0.0944519927536,0.018,0.1955,0.2135,0.0944519927536,0.018,0.1955,0.2135,0.0944519927536
34480000,103.275128631,150.282779214,79.7713033389,0.8025,0.209,0.491,0.0095,0.194,0.2035,0.0487789655996,0.0095,0.194,0.2035,0.0487789655996,0.0095,0.194,0.2035,0.0487789655996,0.0095,0.194,0.2035,0.0487789655996,0.0095,0.194,0.2035,0.0487789655996,0.0095,0.194,0.2035,0.0487789655996
34480000,103.282787099,150.168310643,79.8400253264,0.788,0.1935,0.5835,0.01,0.179,0.189,0.0574792960663,0.01,0.179,0.189,0.0574792960663,0.01,0.179,0.189,0.0574792960663,0.01,0.179,0.189,0.0574792960663,0.01,0.179,0.189,0.0574792960663,0.01,0.179,0.189,0.0574792960663
34480000,103.299809628,150.118105842,79.8906615213,0.8075,0.205,0.6015,0.0165,0.2005,0.217,0.0817628205128,0.0165,0.2005,0.217,0.0817628205128,0.0165,0.2005,0.217,0.0817628205128,0.0165,0.2005,0.217,0.0817628205128,0.0165,0.2005,0.217,0.0817628205128,0.0165,0.2005,0.217,0.0817628205128
34480000,103.581480086,150.172545791,80.2859472333,0.7875,0.198,0.59,0.0135,0.196,0.2095,0.0692077759197,0.0135,0.196,0.2095,0.0692077759197,0.0135,0.196,0.2095,0.0692077759197,0.0135,0.196,0.2095,0.0692077759197,0.0135,0.196,0.2095,0.0692077759197,0.0135,0.196,0.2095,0.0692077759197
34480000,104.205102748,150.413116366,81.1010959396,0.766,0.1945,0.573,0.011,0.1885,0.1995,0.0579110925307,0.011,0.1885,0.1995,0.0579110925307,0.011,0.1885,0.1995,0.0579110925307,0.011,0.1885,0.1995,0.0579110925307,0.011,0.1885,0.1995,0.0579110925307,0.011,0.1885,0.1995,0.0579110925307
34480000,104.943695229,150.398197089,82.2164442993,0.769,0.212,0.572,0.0115,0.2115,0.223,0.0556696428571,0.0115,0.2115,0.223,0.0556696428571,0.0115,0.2115,0.223,0.0556696428571,0.0115,0.2115,0.223,0.0556696428571,0.0115,0.2115,0.223,0.0556696428571,0.0115,0.2115,0.223,0.0556696428571
34480000,105.085480921,150.333969237,82.4612367635,0.798,0.214,0.583,0.0185,0.207,0.2255,0.0914893781742,0.0185,0.207,0.2255,0.0914893781742,0.0185,0.207,0.2255,0.0914893781742,0.0185,0.207,0.2255,0.0914893781742,0.0185,0.207,0.2255,0.0914893781742,0.0185,0.207,0.2255,0.0914893781742
34480000,105.409847975,150.27931856,82.9751126828,0.7535,0.1855,0.5585,0.0135,0.1715,0.185,0.0789732142857,0.0135,0.1715,0.185,0.0789732142857,0.0135,0.1715,0.185,0.0789732142857,0.0135,0.1715,0.185,0.0789732142857,0.0135,0.1715,0.185,0.0789732142857,0.0135,0.1715,0.185,0.0789732142857
34480000,105.457355605,150.396806706,82.9876300538,0.7965,0.2065,0.5885,0.0125,0.1995,0.212,0.064346432553,0.0125,0.1995,0.212,0.064346432553,0.0125,0.1995,0.212,0.064346432553,0.0125,0.1995,0.212,0.064346432553,0.0125,0.1995,0.212,0.064346432553,0.0125,0.1995,0.212,0.064346432553
34600000,95.0707036104,137.851560765,73.6802750331,0.761,0.186,0.5805,0.0295,0.1835,0.213,0.161404416839,0.0295,0.1835,0.213,0.161404416839,0.0295,0.1835,0.213,0.161404416839,0.0295,0.1835,0.213,0.161404416839,0.0295,0.1835,0.213,0.161404416839,0.0295,0.1835,0.213,0.161404416839
34600000,95.7042549584,139.658954478,73.7269051987,0.7695,0.191,0.5865,0.016,0.188,0.204,0.0868720095694,0.016,0.188,0.204,0.0868720095694,0.016,0.188,0.204,0.0868720095694,0.016,0.188,0.204,0.0868720095694,0.016,0.188,0.204,0.0868720095694,0.016,0.188,0.204,0.0868720095694
34600000,95.8038387101,140.455582128,73.4779670013,0.791,0.1825,0.5695,0.013,0.178,0.191,0.0726637492942,0.013,0.178,0.191,0.0726637492942,0.013,0.178,0.191,0.0726637492942,0.013,0.178,0.191,0.0726637492942,0.013,0.178,0.191,0.0726637492942,0.013,0.178,0.191,0.0726637492942
34600000,97.1068080258,141.821932178,74.7492459496,0.756,0.186,0.5695,0.02,0.1805,0.2005,0.112099743554,0.02,0.1805,0.2005,0.112099743554,0.02,0.1805,0.2005,0.112099743554,0.02,0.1805,0.2005,0.112099743554,0.02,0.1805,0.2005,0.112099743554,0.02,0.1805,0.2005,0.112099743554
34600000,97.110515742,141.163854756,75.0838462352,0.7545,0.19,0.564,0.031,0.176,0.207,0.17250323499,0.031,0.176,0.207,0.17250323499,0.031,0.176,0.207,0.17250323499,0.031,0.176,0.207,0.17250323499,0.031,0.176,0.207,0.17250323499,0.031,0.176,0.207,0.17250323499
34600000,97.2326176059,140.268092625,75.7148800962,0.77,0.1975,0.587,0.008,0.1965,0.2045,0.0412251740377,0.008,0.1965,0.2045,0.0412251740377,0.008,0.1965,0.2045,0.0412251740377,0.008,0.1965,0.2045,0.0412251740377,0.008,0.1965,0.2045,0.0412251740377,0.008,0.1965,0.2045,0.0412251740377
34600000,97.8970345851,142.663627444,75.5137381556,0.7915,0.188,0.601,0.014,0.178,0.192,0.0797794882463,0.014,0.178,0.192,0.0797794882463,0.014,0.178,0.192,0.0797794882463,0.014,0.178,0.192,0.0797794882463,0.014,0.178,0.192,0.0797794882463,0.014,0.178,0.192,0.0797794882463
34600000,98.2184958754,144.097831022,75.2788283022,0.7585,0.175,0.585,0.0105,0.174,0.1845,0.0608766233766,0.0105,0.174,0.1845,0.0608766233766,0.0105,0.174,0.1845,0.0608766233766,0.0105,0.174,0.1845,0.0608766233766,0.0105,0.174,0.1845,0.0608766233766,0.0105,0.174,0.1845,0.0608766233766
34600000,98.4068143614,141.935500566,76.6424712593,0.742,0.164,0.5585,0.024,0.1605,0.1845,0.155343377383,0.024,0.1605,0.1845,0.155343377383,0.024,0.1605,0.1845,0.155343377383,0.024,0.1605,0.1845,0.155343377383,0.024,0.1605,0.1845,0.155343377383,0.024,0.1605,0.1845,0.155343377383
34600000,98.4206177043,142.82627277,76.2177901714,0.7615,0.1885,0.5775,0.0235,0.1845,0.208,0.12613423714,0.0235,0.1845,0.208,0.12613423714,0.0235,0.1845,0.208,0.12613423714,0.0235,0.1845,0.208,0.12613423714,0.0235,0.1845,0.208,0.12613423714,0.0235,0.1845,0.208,0.12613423714
34600000,98.4993398275,143.714634419,75.8916925318,0.756,0.1825,0.567,0.013,0.181,0.194,0.0713932806324,0.013,0.181,0.194,0.0713932806324,0.013,0.181,0.194,0.0713932806324,0.013,0.181,0.194,0.0713932806324,0.009,0.181,0.19,0.0496541501976,0.009,0.181,0.19,0.0496541501976
34600000,98.7475690885,144.179537426,76.0315849195,0.772,0.1885,0.586,0.016,0.1775,0.1935,0.0900444664032,0.016,0.1775,0.1935,0.0900444664032,0.014,0.1775,0.1915,0.0786808300395,0.014,0.1775,0.1915,0.0786808300395,0.014,0.1775,0.1915,0.0786808300395,0.014,0.1775,0.1915,0.0786808300395
34600000,98.9793913292,144.485242521,76.2264657335,0.753,0.1805,0.5745,0.0105,0.171,0.1815,0.0625631313131,0.0105,0.171,0.1815,0.0625631313131,0.0105,0.171,0.1815,0.0625631313131,0.0105,0.171,0.1815,0.0625631313131,0.0105,0.171,0.1815,0.0625631313131,0.0105,0.171,0.1815,0.0625631313131
34600000,99.101661907,144.026013473,76.6394861241,0.7495,0.1825,0.5665,0.022,0.1615,0.1835,0.133659969258,0.022,0.1615,0.1835,0.133659969258,0.022,0.1615,0.1835,0.133659969258,0.022,0.1615,0.1835,0.133659969258,0.022,0.1615,0.1835,0.133659969258,0.022,0.1615,0.1835,0.133659969258
34600000,99.2536899472,143.418292779,77.1713885312,0.7475,0.1815,0.569,0.0165,0.167,0.1835,0.0992266414141,0.0165,0.167,0.1835,0.0992266414141,0.0165,0.167,0.1835,0.0992266414141,0.0165,0.167,0.1835,0.0992266414141,0.0165,0.167,0.1835,0.0992266414141,0.0165,0.167,0.1835,0.0992266414141
34600000,99.396438092,143.715963364,77.2366754559,0.771,0.188,0.5845,0.011,0.1795,0.1905,0.0609002024723,0.011,0.1795,0.1905,0.0609002024723,0.011,0.1795,0.1905,0.0609002024723,0.011,0.1795,0.1905,0.0609002024723,0.011,0.1795,0.1905,0.0609002024723,0.011,0.1795,0.1905,0.0609002024723
34600000,99.5295589896,144.729461141,76.9296079138,0.7395,0.1885,0.553,0.023,0.162,0.185,0.134838516746,0.023,0.162,0.185,0.134838516746,0.023,0.162,0.185,0.134838516746,0.023,0.162,0.185,0.134838516746,0.023,0.162,0.185,0.134838516746,0.023,0.162,0.185,0.134838516746
34600000,99.5545450051,144.961719838,76.8509575884,0.7245,0.1805,0.541,0.0225,0.1495,0.172,0.162743506494,0.0225,0.1495,0.172,0.162743506494,0.0225,0.1495,0.172,0.162743506494,0.0225,0.1495,0.172,0.162743506494,0.0225,0.1495,0.172,0.162743506494,0.0225,0.1495,0.172,0.162743506494
34600000,99.7229684201,144.253964722,77.4574702689,0.7705,0.183,0.5825,0.016,0.179,0.195,0.0883594856707,0.016,0.179,0.195,0.0883594856707,0.016,0.179,0.195,0.0883594856707,0.016,0.179,0.195,0.0883594856707,0.016,0.179,0.195,0.0883594856707,0.016,0.179,0.195,0.0883594856707
34600000,99.8214720107,145.512475686,76.975970173,0.7555,0.1865,0.5685,0.0165,0.1795,0.196,0.0928853754941,0.0165,0.1795,0.196,0.0928853754941,0.0165,0.1795,0.196,0.0928853754941,0.0165,0.1795,0.196,0.0928853754941,0.0165,0.1795,0.196,0.0928853754941,0.0165,0.1795,0.196,0.0928853754941
34600000,99.8774342117,145.110233877,77.2610343793,0.786,0.1865,0.525,0.013,0.1815,0.1945,0.0721240942029,0.013,0.1815,0.1945,0.0721240942029,0.013,0.1815,0.1945,0.0721240942029,0.013,0.1815,0.1945,0.0721240942029,0.013,0.1815,0.1945,0.0721240942029,0.013,0.1815,0.1945,0.0721240942029
34600000,99.9217572201,144.562465462,77.6014030993,0.7765,0.189,0.586,0.0095,0.1785,0.188,0.053630736715,0.0095,0.1775,0.187,0.0538674791392,0.0095,0.1775,0.187,0.0538674791392,0.0095,0.1775,0.187,0.0538674791392,0.0095,0.1775,0.187,0.0538674791392,0.0095,0.1775,0.187,0.0538674791392
34600000,100.432353432,147.498666326,76.8991969856,0.798,0.177,0.6175,0.0185,0.1455,0.164,0.128256246677,0.0185,0.1455,0.164,0.128256246677,0.0185,0.1455,0.164,0.128256246677,0.0185,0.1455,0.164,0.128256246677,0.0185,0.1455,0.164,0.128256246677,0.0185,0.1455,0.164,0.128256246677
34600000,100.651917567,144.968816553,78.4934680743,0.7305,0.1805,0.5435,0.011,0.1665,0.1775,0.0652694761855,0.011,0.1665,0.1775,0.0652694761855,0.011,0.1665,0.1775,0.0652694761855,0.011,0.1665,0.1775,0.0652694761855,0.011,0.1665,0.1775,0.0652694761855,0.011,0.1665,0.1775,0.0652694761855
34600000,100.891301441,145.648609345,78.5126474886,0.7495,0.1795,0.5705,0.0115,0.1765,0.188,0.0661470251716,0.0115,0.1765,0.188,0.0661470251716,0.0115,0.1765,0.188,0.0661470251716,0.0115,0.1765,0.188,0.0661470251716,0.0115,0.1765,0.188,0.0661470251716,0.0115,0.1765,0.188,0.0661470251716
34600000,101.783322923,147.60092186,78.8745234549,0.756,0.178,0.5735,0.016,0.177,0.193,0.090662055336,0.016,0.177,0.193,0.090662055336,0.016,0.177,0.193,0.090662055336,0.016,0.177,0.193,0.090662055336,0.016,0.177,0.193,0.090662055336,0.016,0.177,0.193,0.090662055336
34600000,101.91306761,147.381640637,79.1787810966,0.7635,0.183,0.5765,0.011,0.1815,0.1925,0.0605261857708,0.011,0.1815,0.1925,0.0605261857708,0.011,0.1815,0.1925,0.0605261857708,0.011,0.1815,0.1925,0.0605261857708,0.011,0.1815,0.1925,0.0605261857708,0.011,0.1815,0.1925,0.0605261857708
34600000,101.97683591,147.746064639,79.0922215451,0.707,0.1845,0.527,0.0165,0.169,0.1855,0.0996110400682,0.0165,0.169,0.1855,0.0996110400682,0.0165,0.169,0.1855,0.0996110400682,0.0165,0.169,0.1855,0.0996110400682,0.0165,0.169,0.1855,0.0996110400682,0.0165,0.169,0.1855,0.0996110400682
34600000,102.015498458,148.16136302,78.9425661771,0.733,0.182,0.559,0.0235,0.1775,0.201,0.132840909091,0.0235,0.1775,0.201,0.132840909091,0.0235,0.1775,0.201,0.132840909091,0.0235,0.1775,0.201,0.132840909091,0.0235,0.1775,0.201,0.132840909091,0.0235,0.1775,0.201,0.132840909091
34600000,102.546211212,148.505907161,79.5663632377,0.7515,0.1815,0.564,0.0165,0.179,0.1955,0.0921442687747,0.0165,0.179,0.1955,0.0921442687747,0.0165,0.179,0.1955,0.0921442687747,0.0165,0.179,0.1955,0.0921442687747,0.0165,0.179,0.1955,0.0921442687747,0.0165,0.179,0.1955,0.0921442687747
34600000,103.062605603,147.866083748,80.66086653,0.764,0.19,0.5515,0.022,0.186,0.208,0.115072463768,0.022,0.186,0.208,0.115072463768,0.022,0.186,0.208,0.115072463768,0.022,0.186,0.208,0.115072463768,0.022,0.186,0.208,0.115072463768,0.022,0.186,0.208,0.115072463768
34600000,103.067570425,148.715844526,80.2434333739,0.7375,0.1695,0.5545,0.0205,0.151,0.1715,0.135658749146,0.0205,0.151,0.1715,0.135658749146,0.0205,0.151,0.1715,0.135658749146,0.0205,0.151,0.1715,0.135658749146,0.0205,0.151,0.1715,0.135658749146,0.0205,0.151,0.1715,0.135658749146
34600000,103.20943715,148.300971803,80.6636698244,0.747,0.187,0.5605,0.0225,0.1745,0.197,0.13477807971,0.0225,0.1745,0.197,0.13477807971,0.0225,0.1745,0.197,0.13477807971,0.0225,0.1745,0.197,0.13477807971,0.0225,0.1745,0.197,0.13477807971,0.0225,0.1745,0.197,0.13477807971
34600000,103.314887473,146.991405968,81.4766282256,0.793,0.3595,0.5105,0.012,0.3585,0.3705,0.0371503401963,0.012,0.3585,0.3705,0.0371503401963,0.012,0.3585,0.3705,0.0371503401963,0.012,0.3585,0.3705,0.0371503401963,0.012,0.3585,0.3705,0.0371503401963,0.012,0.3585,0.3705,0.0371503401963
34600000,103.571361008,149.558979643,80.5775516899,0.744,0.204,0.548,0.02,0.2,0.22,0.102564102564,0.02,0.2,0.22,0.102564102564,0.02,0.2,0.22,0.102564102564,0.02,0.2,0.22,0.102564102564,0.02,0.2,0.22,0.102564102564,0.02,0.2,0.22,0.102564102564
34600000,103.853256762,147.79805393,81.8808581782,0.722,0.2075,0.5235,0.012,0.2005,0.2125,0.0592921661672,0.012,0.2005,0.2125,0.0592921661672,0.012,0.2005,0.2125,0.0592921661672,0.012,0.2005,0.2125,0.0592921661672,0.012,0.2005,0.2125,0.0592921661672,0.012,0.2005,0.2125,0.0592921661672
34600000,104.301913135,149.804285959,81.5507267225,0.734,0.1935,0.532,0.013,0.1755,0.1885,0.0767284798535,0.013,0.1755,0.1885,0.0767284798535,0.013,0.1755,0.1885,0.0767284798535,0.013,0.1755,0.1885,0.0767284798535,0.013,0.1755,0.1885,0.0767284798535,0.013,0.1755,0.1885,0.0767284798535
34600000,104.346537134,149.135034723,81.95228834,0.7025,0.186,0.4625,0.018,0.1835,0.2015,0.100069550015,0.018,0.1835,0.2015,0.100069550015,0.018,0.1835,0.2015,0.100069550015,0.018,0.1835,0.2015,0.100069550015,0.018,0.1835,0.2015,0.100069550015,0.018,0.1835,0.2015,0.100069550015
34600000,105.266789666,150.14523949,82.8275647537,0.6865,0.1785,0.5095,0.0095,0.1745,0.184,0.0543948804818,0.0095,0.1745,0.184,0.0543948804818,0.0095,0.1745,0.184,0.0543948804818,0.0095,0.1745,0.184,0.0543948804818,0.0095,0.1745,0.184,0.0543948804818,0.0095,0.1745,0.184,0.0543948804818
34600000,107.086478975,149.848788122,85.705324402,0.722,0.181,0.5345,0.0095,0.1715,0.181,0.0551948051948,0.0095,0.1715,0.181,0.0551948051948,0.0095,0.1715,0.181,0.0551948051948,0.0095,0.1715,0.181,0.0551948051948,0.0095,0.1715,0.181,0.0551948051948,0.0095,0.1715,0.181,0.0551948051948
34640000,91.8196737934,129.926078426,72.7664714771,0.829,0.2085,0.627,0.025,0.205,0.23,0.128124176548,0.025,0.205,0.23,0.128124176548,0.025,0.205,0.23,0.128124176548,0.025,0.203,0.228,0.128540843215,0.025,0.203,0.228,0.128540843215,0.0245,0.203,0.2275,0.127404479578
34640000,103.359083809,148.010652094,81.0332996657,0.798,0.182,0.6055,0.0205,0.143,0.1635,0.146762092075,0.0205,0.143,0.1635,0.146762092075,0.0205,0.143,0.1635,0.146762092075,0.0205,0.143,0.1635,0.146762092075,0.0205,0.143,0.1635,0.146762092075,0.0205,0.143,0.1635,0.146762092075
34640000,103.415727945,143.250711436,83.4982362004,0.724,0.18,0.526,0.01,0.18,0.19,0.0553359683794,0.01,0.18,0.19,0.0553359683794,0.01,0.18,0.19,0.0553359683794,0.01,0.18,0.19,0.0553359683794,0.01,0.18,0.19,0.0553359683794,0.01,0.18,0.19,0.0553359683794
34640000,104.734572697,147.856550436,83.1735838268,0.7815,0.1885,0.601,0.009,0.182,0.191,0.0512152777778,0.009,0.182,0.191,0.0512152777778,0.009,0.182,0.191,0.0512152777778,0.009,0.182,0.191,0.0512152777778,0.009,0.182,0.191,0.0512152777778,0.009,0.182,0.191,0.0512152777778
34640000,104.825332326,149.470976281,82.5025103492,0.796,0.1885,0.601,0.008,0.177,0.185,0.0453905514775,0.008,0.177,0.185,0.0453905514775,0.008,0.177,0.185,0.0453905514775,0.008,0.177,0.185,0.0453905514775,0.008,0.177,0.185,0.0453905514775,0.008,0.177,0.185,0.0453905514775
34640000,104.894856611,149.665784983,82.5093924252,0.806,0.1925,0.617,0.0085,0.188,0.1965,0.0451766304348,0.0085,0.188,0.1965,0.0451766304348,0.0085,0.188,0.1965,0.0451766304348,0.0085,0.188,0.1965,0.0451766304348,0.0085,0.188,0.1965,0.0451766304348,0.0085,0.188,0.1965,0.0451766304348
34640000,105.041653358,148.218274276,83.4533428994,0.8025,0.187,0.62,0.036,0.1765,0.2125,0.205707109919,0.036,0.1765,0.2125,0.205707109919,0.036,0.1765,0.2125,0.205707109919,0.036,0.1765,0.2125,0.205707109919,0.034,0.1765,0.2105,0.193802348014,0.034,0.1765,0.2105,0.193802348014
34640000,105.408213089,149.893834603,83.1654023324,0.7555,0.178,0.5685,0.011,0.172,0.183,0.0650668172407,0.011,0.172,0.183,0.0650668172407,0.011,0.172,0.183,0.0650668172407,0.011,0.172,0.183,0.0650668172407,0.011,0.172,0.183,0.0650668172407,0.011,0.172,0.183,0.0650668172407
34760000,100.934718026,149.033770564,76.885191757,0.716,0.1935,0.538,0.029,0.192,0.221,0.151611522535,0.029,0.192,0.221,0.151611522535,0.029,0.192,0.221,0.151611522535,0.029,0.192,0.221,0.151611522535,0.029,0.192,0.221,0.151611522535,0.029,0.192,0.221,0.151611522535
34760000,101.002312735,149.338937782,76.8340002106,0.7395,0.184,0.543,0.0155,0.177,0.1925,0.0942238408521,0.0155,0.177,0.1925,0.0942238408521,0.0155,0.177,0.1925,0.0942238408521,0.0155,0.177,0.1925,0.0942238408521,0.0155,0.177,0.1925,0.0942238408521,0.0155,0.177,0.1925,0.0942238408521
34760000,101.122280927,148.371380154,77.4977313142,0.7445,0.1815,0.564,0.01,0.179,0.189,0.0557390264198,0.01,0.179,0.189,0.0557390264198,0.01,0.179,0.189,0.0557390264198,0.01,0.179,0.189,0.0557390264198,0.01,0.179,0.189,0.0557390264198,0.01,0.179,0.189,0.0557390264198
34760000,101.148679492,149.184698112,77.1306701826,0.7475,0.183,0.5635,0.013,0.1785,0.1915,0.0727519762846,0.013,0.1785,0.1915,0.0727519762846,0.013,0.1785,0.1915,0.0727519762846,0.013,0.1765,0.1895,0.0750247035573,0.013,0.1765,0.1895,0.0750247035573,0.013,0.1765,0.1895,0.0750247035573
34760000,102.341605884,149.792856776,78.615980438,0.693,0.176,0.5085,0.026,0.1665,0.1925,0.157933897243,0.026,0.1665,0.1925,0.157933897243,0.026,0.1665,0.1925,0.157933897243,0.026,0.1665,0.1925,0.157933897243,0.026,0.1665,0.1925,0.157933897243,0.026,0.1665,0.1925,0.157933897243
34760000,102.483267299,149.356385988,79.0467079554,0.7135,0.167,0.5465,0.017,0.165,0.182,0.105160628845,0.017,0.165,0.182,0.105160628845,0.017,0.165,0.182,0.105160628845,0.017,0.165,0.182,0.105160628845,0.017,0.165,0.182,0.105160628845,0.017,0.165,0.182,0.105160628845
34760000,102.815376462,150.285289706,79.0804198402,0.7155,0.184,0.5375,0.011,0.178,0.189,0.0611471861472,0.011,0.178,0.189,0.0611471861472,0.011,0.178,0.189,0.0611471861472,0.011,0.178,0.189,0.0611471861472,0.011,0.178,0.189,0.0611471861472,0.011,0.178,0.189,0.0611471861472
34760000,102.903797434,150.258211194,79.2265905542,0.7255,0.175,0.548,0.0105,0.175,0.1855,0.0595826275174,0.0105,0.175,0.1855,0.0595826275174,0.0105,0.175,0.1855,0.0595826275174,0.0105,0.175,0.1855,0.0595826275174,0.0105,0.175,0.1855,0.0595826275174,0.0105,0.175,0.1855,0.0595826275174
34760000,103.06125895,150.177155987,79.503310431,0.7245,0.165,0.545,0.0135,0.1555,0.169,0.0892260622785,0.0135,0.1555,0.169,0.0892260622785,0.0135,0.1555,0.169,0.0892260622785,0.0135,0.1555,0.169,0.0892260622785,0.0135,0.1555,0.169,0.0892260622785,0.0135,0.1555,0.169,0.0892260622785
34760000,104.436892982,142.228523222,85.5410778619,0.692,0.241,0.4385,0.012,0.235,0.247,0.057297979798,0.012,0.235,0.247,0.057297979798,0.012,0.235,0.247,0.057297979798,0.012,0.235,0.247,0.057297979798,0.012,0.235,0.247,0.057297979798,0.012,0.235,0.247,0.057297979798
34760000,104.5279564,144.354081594,84.6148938034,0.728,0.198,0.5315,0.0095,0.1885,0.198,0.0498432907672,0.0095,0.1885,0.198,0.0498432907672,0.0095,0.1885,0.198,0.0498432907672,0.0095,0.1885,0.198,0.0498432907672,0.0095,0.1885,0.198,0.0498432907672,0.0095,0.1885,0.198,0.0498432907672
34760000,104.706688625,147.828353452,83.1458562118,0.6825,0.1985,0.517,0.022,0.189,0.211,0.122422905089,0.022,0.189,0.211,0.122422905089,0.022,0.189,0.211,0.122422905089,0.022,0.189,0.211,0.122422905089,0.022,0.189,0.211,0.122422905089,0.022,0.189,0.211,0.122422905089
34760000,105.135274576,144.09482205,85.6555008386,0.7005,0.197,0.506,0.009,0.193,0.202,0.0471077568503,0.009,0.193,0.202,0.0471077568503,0.009,0.193,0.202,0.0471077568503,0.009,0.193,0.202,0.0471077568503,0.009,0.193,0.202,0.0471077568503,0.009,0.193,0.202,0.0471077568503
34760000,105.203653056,148.426699564,83.5921298023,0.7275,0.1755,0.552,0.0275,0.155,0.1825,0.179408079021,0.0275,0.155,0.1825,0.179408079021,0.0275,0.155,0.1825,0.179408079021,0.0275,0.155,0.1825,0.179408079021,0.0275,0.155,0.1825,0.179408079021,0.0275,0.155,0.1825,0.179408079021
34760000,105.368719099,146.217324967,84.944416165,0.7225,0.208,0.5185,0.0375,0.2035,0.241,0.184604605841,0.0365,0.2035,0.24,0.178922787659,0.0365,0.2035,0.24,0.178922787659,0.0365,0.2035,0.24,0.178922787659,0.0365,0.2035,0.24,0.178922787659,0.0365,0.2035,0.24,0.178922787659
34760000,105.46648921,149.546348367,83.4265596309,0.7295,0.1755,0.548,0.0225,0.1715,0.194,0.132734566158,0.0225,0.1715,0.194,0.132734566158,0.0225,0.1715,0.194,0.132734566158,0.0225,0.1715,0.194,0.132734566158,0.0225,0.1715,0.194,0.132734566158,0.0225,0.1715,0.194,0.132734566158
34760000,105.845476658,148.996685478,84.2698722476,0.706,0.169,0.5235,0.028,0.157,0.185,0.182700358852,0.028,0.157,0.185,0.182700358852,0.028,0.157,0.185,0.182700358852,0.028,0.157,0.185,0.182700358852,0.028,0.157,0.185,0.182700358852,0.028,0.157,0.185,0.182700358852
34760000,105.935368798,150.144951553,83.8305774201,0.718,0.1745,0.543,0.018,0.1725,0.1905,0.103760822511,0.018,0.1725,0.1905,0.103760822511,0.018,0.1725,0.1905,0.103760822511,0.018,0.1725,0.1905,0.103760822511,0.018,0.1725,0.1905,0.103760822511,0.018,0.1725,0.1905,0.103760822511
34760000,106.381037626,150.514505653,84.3143036118,0.705,0.1695,0.5365,0.015,0.156,0.171,0.0932674963925,0.015,0.156,0.171,0.0932674963925,0.015,0.156,0.171,0.0932674963925,0.013,0.156,0.169,0.0813627344877,0.013,0.156,0.169,0.0813627344877,0.013,0.156,0.169,0.0813627344877
34760000,106.39359786,145.651562224,86.7646156775,0.696,0.2875,0.4695,0.014,0.2825,0.2965,0.0489764919748,0.014,0.2825,0.2965,0.0489764919748,0.014,0.2825,0.2965,0.0489764919748,0.014,0.2825,0.2965,0.0489764919748,0.014,0.2825,0.2965,0.0489764919748,0.014,0.2825,0.2965,0.0489764919748
34760000,106.73533245,147.212354028,86.4968216618,0.736,0.193,0.5375,0.0195,0.1895,0.209,0.103978919631,0.0195,0.1895,0.209,0.103978919631,0.0195,0.1895,0.209,0.103978919631,0.0195,0.1895,0.209,0.103978919631,0.0195,0.1895,0.209,0.103978919631,0.0195,0.1895,0.209,0.103978919631
34760000,106.790209768,150.570371621,84.9001288414,0.6725,0.176,0.5015,0.018,0.164,0.182,0.112310606061,0.018,0.164,0.182,0.112310606061,0.018,0.164,0.182,0.112310606061,0.018,0.164,0.182,0.112310606061,0.018,0.164,0.182,0.112310606061,0.018,0.164,0.182,0.112310606061
34760000,107.172595306,148.538558849,86.4896135344,0.725,0.1915,0.531,0.0095,0.182,0.1915,0.0517399538867,0.0095,0.182,0.1915,0.0517399538867,0.0095,0.182,0.1915,0.0517399538867,0.0095,0.182,0.1915,0.0517399538867,0.0095,0.182,0.1915,0.0517399538867,0.0095,0.182,0.1915,0.0517399538867
34760000,107.38451884,150.13176372,86.0108964005,0.7655,0.181,0.587,0.022,0.1765,0.1985,0.124707870632,0.022,0.1765,0.1985,0.124707870632,0.022,0.1765,0.1985,0.124707870632,0.022,0.1765,0.1985,0.124707870632,0.022,0.1765,0.1985,0.124707870632,0.022,0.1765,0.1985,0.124707870632
34760000,107.448950558,144.859640937,88.7436053684,0.6915,0.191,0.474,0.0125,0.188,0.2005,0.0652177825644,0.0125,0.188,0.2005,0.0652177825644,0.0125,0.188,0.2005,0.0652177825644,0.0125,0.188,0.2005,0.0652177825644,0.0125,0.188,0.2005,0.0652177825644,0.0125,0.188,0.2005,0.0652177825644
34760000,107.608458751,150.273165849,86.2761052023,0.707,0.174,0.53,0.014,0.166,0.18,0.084632034632,0.014,0.166,0.18,0.084632034632,0.014,0.166,0.18,0.084632034632,0.014,0.166,0.18,0.084632034632,0.014,0.166,0.18,0.084632034632,0.014,0.166,0.18,0.084632034632
34760000,107.691730164,148.172941459,87.4511245167,0.714,0.2035,0.5055,0.01,0.198,0.208,0.0496734050557,0.01,0.198,0.208,0.0496734050557,0.01,0.198,0.208,0.0496734050557,0.01,0.198,0.208,0.0496734050557,0.01,0.198,0.208,0.0496734050557,0.01,0.198,0.208,0.0496734050557
34760000,107.817456554,146.00492129,88.7237241865,0.689,0.1935,0.4785,0.0285,0.182,0.2105,0.156545555865,0.0285,0.182,0.2105,0.156545555865,0.0285,0.182,0.2105,0.156545555865,0.0285,0.182,0.2105,0.156545555865,0.0285,0.182,0.2105,0.156545555865,0.0285,0.182,0.2105,0.156545555865
34760000,107.817721481,150.041573188,86.7057956271,0.772,0.1745,0.5885,0.008,0.1585,0.1665,0.0508708003953,0.008,0.1585,0.1665,0.0508708003953,0.008,0.1585,0.1665,0.0508708003953,0.008,0.1585,0.1665,0.0508708003953,0.008,0.1585,0.1665,0.0508708003953,0.008,0.1585,0.1665,0.0508708003953
34760000,108.249143638,150.665783455,87.0408237294,0.6635,0.2005,0.495,0.015,0.1945,0.2095,0.0860540359519,0.015,0.1945,0.2095,0.0860540359519,0.015,0.1945,0.2095,0.0860540359519,0.015,0.1945,0.2095,0.0860540359519,0.015,0.1945,0.2095,0.0860540359519,0.015,0.1945,0.2095,0.0860540359519
34760000,108.395290372,150.002181479,87.5918448182,0.7155,0.1755,0.532,0.0095,0.1685,0.178,0.0561796536797,0.0095,0.1685,0.178,0.0561796536797,0.0095,0.1685,0.178,0.0561796536797,0.0095,0.1685,0.178,0.0561796536797,0.0095,0.1685,0.178,0.0561796536797,0.0095,0.1685,0.178,0.0561796536797
34760000,108.405211891,150.05958997,87.5780228521,0.7525,0.183,0.569,0.0145,0.167,0.1815,0.0850766986637,0.0145,0.167,0.1815,0.0850766986637,0.0145,0.167,0.1815,0.0850766986637,0.0145,0.167,0.1815,0.0850766986637,0.0145,0.167,0.1815,0.0850766986637,0.0145,0.167,0.1815,0.0850766986637
34760000,108.565250323,148.045218264,88.8252663532,0.7325,0.1785,0.5425,0.009,0.1755,0.1845,0.0513378926565,0.009,0.1755,0.1845,0.0513378926565,0.009,0.1755,0.1845,0.0513378926565,0.009,0.1755,0.1845,0.0513378926565,0.009,0.1755,0.1845,0.0513378926565,0.009,0.1755,0.1845,0.0513378926565
34760000,108.569765392,150.178680773,87.7653077023,0.693,0.1765,0.517,0.016,0.1615,0.1775,0.0991341991342,0.016,0.1615,0.1775,0.0991341991342,0.016,0.1615,0.1775,0.0991341991342,0.016,0.1615,0.1775,0.0991341991342,0.016,0.1615,0.1775,0.0991341991342,0.016,0.1615,0.1775,0.0991341991342
34760000,108.790522376,150.276969987,88.0472985702,0.7505,0.178,0.577,0.015,0.1695,0.1845,0.0900523088023,0.015,0.1695,0.1845,0.0900523088023,0.015,0.1695,0.1845,0.0900523088023,0.015,0.1695,0.1845,0.0900523088023,0.015,0.1695,0.1845,0.0900523088023,0.015,0.1695,0.1845,0.0900523088023
34760000,109.054440972,149.277528217,88.9428973494,0.695,0.2105,0.496,0.012,0.201,0.213,0.058618064705,0.012,0.201,0.213,0.058618064705,0.012,0.201,0.213,0.058618064705,0.012,0.201,0.213,0.058618064705,0.012,0.201,0.213,0.058618064705,0.012,0.201,0.213,0.058618064705
34760000,109.197219476,150.142974359,88.7243420342,0.728,0.176,0.553,0.0185,0.1735,0.192,0.106511544012,0.0185,0.1735,0.192,0.106511544012,0.0185,0.1735,0.192,0.106511544012,0.0185,0.1735,0.192,0.106511544012,0.0185,0.1735,0.192,0.106511544012,0.0185,0.1735,0.192,0.106511544012
34760000,109.236402986,150.164776843,88.7722160576,0.768,0.1785,0.5865,0.01,0.1775,0.1875,0.0564593920572,0.01,0.1775,0.1875,0.0564593920572,0.01,0.1775,0.1875,0.0564593920572,0.01,0.1775,0.1875,0.0564593920572,0.01,0.1775,0.1875,0.0564593920572,0.01,0.1775,0.1875,0.0564593920572
34760000,109.447645624,149.483857403,89.4295397344,0.6815,0.212,0.485,0.011,0.209,0.22,0.0534336677815,0.011,0.209,0.22,0.0534336677815,0.011,0.209,0.22,0.0534336677815,0.011,0.209,0.22,0.0534336677815,0.011,0.209,0.22,0.0534336677815,0.011,0.209,0.22,0.0534336677815
34760000,109.484274756,149.226102772,89.6133607478,0.7325,0.1975,0.5385,0.0175,0.1845,0.202,0.0947454525041,0.0175,0.1845,0.202,0.0947454525041,0.0175,0.1845,0.202,0.0947454525041,0.0175,0.1845,0.202,0.0947454525041,0.0175,0.1845,0.202,0.0947454525041,0.0175,0.1845,0.202,0.0947454525041
34760000,109.665274717,149.47810021,89.7588619707,0.703,0.2255,0.5035,0.0205,0.2255,0.246,0.0979417502787,0.0205,0.2255,0.246,0.0979417502787,0.0205,0.2255,0.246,0.0979417502787,0.0205,0.2255,0.246,0.0979417502787,0.0205,0.2255,0.246,0.0979417502787,0.0205,0.2255,0.246,0.0979417502787
34760000,109.809093478,150.21127803,89.608001202,0.765,0.177,0.579,0.0145,0.1725,0.187,0.084439111613,0.0145,0.1725,0.187,0.084439111613,0.0145,0.1725,0.187,0.084439111613,0.0145,0.1725,0.187,0.084439111613,0.0145,0.1725,0.187,0.084439111613,0.0145,0.1725,0.187,0.084439111613
34760000,110.609563881,149.897073022,90.9658093101,0.7065,0.19,0.5195,0.0145,0.185,0.1995,0.078152173913,0.0145,0.185,0.1995,0.078152173913,0.0145,0.185,0.1995,0.078152173913,0.0145,0.185,0.1995,0.078152173913,0.0105,0.185,0.1955,0.0564130434783,0.0105,0.185,0.1955,0.0564130434783
34800000,103.364968314,146.688357208,81.7032738677,0.68,0.248,0.504,0.008,0.232,0.24,0.0344827586207,0.008,0.232,0.24,0.0344827586207,0.008,0.232,0.24,0.0344827586207,0.008,0.232,0.24,0.0344827586207,0.008,0.232,0.24,0.0344827586207,0.008,0.232,0.24,0.0344827586207
34800000,104.563831548,147.058674317,83.3164101634,0.6715,0.231,0.4435,0.01,0.2125,0.2225,0.0509218327439,0.01,0.2125,0.2225,0.0509218327439,0.01,0.2125,0.2225,0.0509218327439,0.01,0.2125,0.2225,0.0509218327439,0.01,0.2125,0.2225,0.0509218327439,0.01,0.2125,0.2225,0.0509218327439
34800000,105.033820934,149.437412421,82.8320251907,0.676,0.1865,0.4585,0.0195,0.1815,0.201,0.108252164502,0.0195,0.1815,0.201,0.108252164502,0.0195,0.1655,0.185,0.116585497835,0.0195,0.1655,0.185,0.116585497835,0.0195,0.1655,0.185,0.116585497835,0.0195,0.1655,0.185,0.116585497835
34800000,105.053615979,145.783017318,84.6889153096,0.673,0.1675,0.506,0.018,0.1505,0.1685,0.124425200702,0.018,0.1505,0.1685,0.124425200702,0.018,0.1505,0.1685,0.124425200702,0.018,0.1505,0.1685,0.124425200702,0.018,0.1505,0.1685,0.124425200702,0.018,0.1505,0.1685,0.124425200702
34800000,105.552939686,149.54900206,83.5549085,0.6755,0.2065,0.4645,0.017,0.2005,0.2175,0.0913849737219,0.017,0.2005,0.2175,0.0913849737219,0.017,0.2005,0.2175,0.0913849737219,0.017,0.2005,0.2175,0.0913849737219,0.017,0.2005,0.2175,0.0913849737219,0.017,0.2005,0.2175,0.0913849737219
34800000,105.755379744,147.832046008,84.7170466114,0.693,0.188,0.506,0.0105,0.183,0.1935,0.0583975919913,0.0105,0.183,0.1935,0.0583975919913,0.0105,0.183,0.1935,0.0583975919913,0.0105,0.183,0.1935,0.0583975919913,0.0105,0.183,0.1935,0.0583975919913,0.0105,0.183,0.1935,0.0583975919913
34800000,105.812804495,145.536363052,85.9510252163,0.6845,0.189,0.444,0.0295,0.1775,0.207,0.169374254972,0.0295,0.1775,0.207,0.169374254972,0.0295,0.1775,0.207,0.169374254972,0.0295,0.1775,0.207,0.169374254972,0.0295,0.1775,0.207,0.169374254972,0.0295,0.1775,0.207,0.169374254972
34800000,106.576589894,147.503320422,86.1132246301,0.6695,0.1935,0.4615,0.026,0.185,0.211,0.147192911255,0.026,0.185,0.211,0.147192911255,0.026,0.185,0.211,0.147192911255,0.026,0.185,0.211,0.147192911255,0.026,0.185,0.211,0.147192911255,0.026,0.185,0.211,0.147192911255
34800000,106.633946613,148.84977211,85.5260338641,0.6625,0.1925,0.328,0.0195,0.1815,0.201,0.107421563943,0.0195,0.1815,0.201,0.107421563943,0.0195,0.1815,0.201,0.107421563943,0.0195,0.1815,0.201,0.107421563943,0.0195,0.1815,0.201,0.107421563943,0.0195,0.1815,0.201,0.107421563943
34800000,106.78734244,148.782973908,85.7895267055,0.633,0.1905,0.444,0.0235,0.181,0.2045,0.1309121551,0.0235,0.181,0.2045,0.1309121551,0.0235,0.181,0.2045,0.1309121551,0.0235,0.181,0.2045,0.1309121551,0.0235,0.181,0.2045,0.1309121551,0.0235,0.181,0.2045,0.1309121551
34800000,107.429618213,150.022566032,86.1331443038,0.674,0.185,0.436,0.0245,0.171,0.1955,0.148041377482,0.0245,0.171,0.1955,0.148041377482,0.0245,0.171,0.1955,0.148041377482,0.0245,0.171,0.1955,0.148041377482,0.0245,0.171,0.1955,0.148041377482,0.0245,0.171,0.1955,0.148041377482
34800000,108.531356014,150.253305882,87.6703810804,0.646,0.1905,0.4175,0.025,0.179,0.204,0.150952285806,0.025,0.179,0.204,0.150952285806,0.025,0.179,0.204,0.150952285806,0.025,0.179,0.204,0.150952285806,0.025,0.179,0.204,0.150952285806,0.025,0.179,0.204,0.150952285806
34840000,88.4046243293,119.793434056,72.7102194663,0.593,0.1775,0.4165,0.012,0.1705,0.1825,0.0702516233766,0.012,0.1705,0.1825,0.0702516233766,0.012,0.1705,0.1825,0.0702516233766,0.012,0.1705,0.1825,0.0702516233766,0.012,0.1705,0.1825,0.0702516233766,0.012,0.1705,0.1825,0.0702516233766
34840000,91.262248013,129.791319982,71.9977120283,0.6875,0.169,0.517,0.017,0.1605,0.1775,0.103561460469,0.017,0.1605,0.1775,0.103561460469,0.017,0.1605,0.1775,0.103561460469,0.017,0.1605,0.1775,0.103561460469,0.017,0.1605,0.1775,0.103561460469,0.017,0.1605,0.1775,0.103561460469
34840000,92.3665343476,131.406354888,72.8466240777,0.682,0.174,0.5115,0.0195,0.1625,0.182,0.119446343131,0.0195,0.1625,0.182,0.119446343131,0.0195,0.1625,0.182,0.119446343131,0.0195,0.1625,0.182,0.119446343131,0.0195,0.1625,0.182,0.119446343131,0.0195,0.1625,0.182,0.119446343131
34840000,92.5326619152,130.846140993,73.3759223762,0.6855,0.1785,0.5085,0.014,0.1765,0.1905,0.0788290513834,0.014,0.1765,0.1905,0.0788290513834,0.014,0.1765,0.1905,0.0788290513834,0.014,0.1765,0.1905,0.0788290513834,0.014,0.1765,0.1905,0.0788290513834,0.014,0.1765,0.1905,0.0788290513834
34840000,92.8681896082,132.958919834,72.8228244952,0.6835,0.173,0.5105,0.0155,0.1485,0.164,0.111902573529,0.0155,0.1485,0.164,0.111902573529,0.0155,0.1485,0.164,0.111902573529,0.0155,0.1485,0.164,0.111902573529,0.0155,0.1485,0.164,0.111902573529,0.0155,0.1485,0.164,0.111902573529
34840000,93.4498299283,135.123610035,72.6129398751,0.694,0.176,0.52,0.016,0.1525,0.1685,0.108127088555,0.016,0.1525,0.1685,0.108127088555,0.016,0.1525,0.1685,0.108127088555,0.016,0.1525,0.1685,0.108127088555,0.016,0.1525,0.1685,0.108127088555,0.016,0.1525,0.1685,0.108127088555
34840000,93.4877556028,128.297669892,76.082798458,0.6585,0.1905,0.4815,0.01,0.1795,0.1895,0.0536042592094,0.01,0.1795,0.1895,0.0536042592094,0.01,0.1795,0.1895,0.0536042592094,0.01,0.1795,0.1895,0.0536042592094,0.01,0.1795,0.1895,0.0536042592094,0.01,0.1795,0.1895,0.0536042592094
34840000,93.684535482,131.858336496,74.597634975,0.694,0.3225,0.497,0.018,0.3135,0.3315,0.0936414812805,0.018,0.3135,0.3315,0.0936414812805,0.018,0.3135,0.3315,0.0936414812805,0.018,0.3135,0.3315,0.0936414812805,0.018,0.3135,0.3315,0.0936414812805,0.018,0.3135,0.3315,0.0936414812805
34840000,93.8751033623,134.363252188,73.6310289495,0.685,0.1675,0.516,0.0105,0.162,0.1725,0.0661158103592,0.0105,0.162,0.1725,0.0661158103592,0.0105,0.162,0.1725,0.0661158103592,0.0105,0.162,0.1725,0.0661158103592,0.0105,0.162,0.1725,0.0661158103592,0.0105,0.162,0.1725,0.0661158103592
34840000,93.8964932522,131.209808594,75.2398355813,0.683,0.1735,0.5085,0.014,0.17,0.184,0.0854074415287,0.014,0.17,0.184,0.0854074415287,0.014,0.17,0.184,0.0854074415287,0.014,0.17,0.184,0.0854074415287,0.014,0.17,0.184,0.0854074415287,0.014,0.17,0.184,0.0854074415287
34840000,94.3097777732,131.247239548,75.8410468858,0.672,0.183,0.492,0.016,0.18,0.196,0.088034438864,0.016,0.18,0.196,0.088034438864,0.016,0.18,0.196,0.088034438864,0.016,0.18,0.196,0.088034438864,0.016,0.18,0.196,0.088034438864,0.016,0.18,0.196,0.088034438864
34840000,94.4392605438,136.758795983,73.2794928244,0.7015,0.1725,0.532,0.0185,0.1605,0.179,0.116223798132,0.0185,0.1605,0.179,0.116223798132,0.0185,0.1605,0.179,0.116223798132,0.0185,0.1605,0.179,0.116223798132,0.0185,0.1605,0.179,0.116223798132,0.0185,0.1605,0.179,0.116223798132
34840000,94.519614311,129.509513788,77.0246645726,0.654,0.1835,0.465,0.0155,0.1815,0.197,0.0874787636086,0.0155,0.1815,0.197,0.0874787636086,0.0155,0.1815,0.197,0.0874787636086,0.0155,0.1815,0.197,0.0874787636086,0.0155,0.1815,0.197,0.0874787636086,0.0155,0.1815,0.197,0.0874787636086
34840000,94.862163706,133.480420357,75.5530353805,0.676,0.1765,0.496,0.0105,0.1745,0.185,0.0600433684673,0.0105,0.1745,0.185,0.0600433684673,0.0105,0.1745,0.185,0.0600433684673,0.0105,0.1745,0.185,0.0600433684673,0.0105,0.1745,0.185,0.0600433684673,0.0105,0.1745,0.185,0.0600433684673
34840000,95.0030554682,136.77566056,74.116752922,0.689,0.1705,0.523,0.013,0.1675,0.1805,0.0769178125796,0.013,0.1675,0.1805,0.0769178125796,0.013,0.1675,0.1805,0.0769178125796,0.013,0.1675,0.1805,0.0769178125796,0.013,0.1675,0.1805,0.0769178125796,0.013,0.1675,0.1805,0.0769178125796
34840000,95.3780856487,136.984828525,74.5747142105,0.676,0.1685,0.5045,0.0155,0.1465,0.162,0.102371241459,0.0155,0.1465,0.162,0.102371241459,0.0155,0.1465,0.162,0.102371241459,0.0155,0.1465,0.162,0.102371241459,0.0155,0.1465,0.162,0.102371241459,0.0155,0.1465,0.162,0.102371241459
34840000,96.0743142652,137.963222893,75.1298599515,0.6705,0.165,0.499,0.014,0.152,0.166,0.0938031632111,0.014,0.152,0.166,0.0938031632111,0.014,0.152,0.166,0.0938031632111,0.014,0.152,0.166,0.0938031632111,0.014,0.152,0.166,0.0938031632111,0.014,0.152,0.166,0.0938031632111
34840000,96.5585227968,133.589602775,78.0429828079,0.636,0.17,0.432,0.026,0.154,0.18,0.165425261013,0.026,0.154,0.18,0.165425261013,0.026,0.154,0.18,0.165425261013,0.026,0.154,0.18,0.165425261013,0.026,0.154,0.18,0.165425261013,0.026,0.154,0.18,0.165425261013
34840000,97.1971701954,138.391761485,76.5998745508,0.679,0.1755,0.504,0.0085,0.159,0.1675,0.0530976881306,0.0085,0.159,0.1675,0.0530976881306,0.0085,0.159,0.1675,0.0530976881306,0.0085,0.159,0.1675,0.0530976881306,0.0085,0.159,0.1675,0.0530976881306,0.0085,0.159,0.1675,0.0530976881306
34840000,97.7406365252,140.246094742,76.487907417,0.6615,0.17,0.488,0.0115,0.1655,0.177,0.0701028138528,0.0115,0.1655,0.177,0.0701028138528,0.0115,0.1655,0.177,0.0701028138528,0.0115,0.1655,0.177,0.0701028138528,0.0115,0.1655,0.177,0.0701028138528,0.0115,0.1655,0.177,0.0701028138528
34840000,98.4002744657,141.051817147,77.074503125,0.692,0.1825,0.5105,0.014,0.1715,0.1855,0.0805982966309,0.014,0.1715,0.1855,0.0805982966309,0.014,0.1715,0.1855,0.0805982966309,0.014,0.1715,0.1855,0.0805982966309,0.014,0.1715,0.1855,0.0805982966309,0.014,0.1715,0.1855,0.0805982966309
34840000,98.5304914403,141.261391897,77.1650412122,0.667,0.1735,0.492,0.0265,0.167,0.1935,0.157178932179,0.0265,0.167,0.1935,0.157178932179,0.0265,0.167,0.1935,0.157178932179,0.0265,0.167,0.1935,0.157178932179,0.0265,0.167,0.1935,0.157178932179,0.0265,0.167,0.1935,0.157178932179
34840000,98.646762367,136.948225747,79.4960306768,0.654,0.2135,0.463,0.012,0.2055,0.2175,0.0567951440675,0.012,0.2055,0.2175,0.0567951440675,0.012,0.2055,0.2175,0.0567951440675,0.012,0.2055,0.2175,0.0567951440675,0.012,0.2055,0.2175,0.0567951440675,0.012,0.2055,0.2175,0.0567951440675
34840000,100.360278289,143.910781351,78.5850267583,0.677,0.175,0.4775,0.013,0.172,0.185,0.0758046301525,0.013,0.172,0.185,0.0758046301525,0.013,0.172,0.185,0.0758046301525,0.013,0.172,0.185,0.0758046301525,0.013,0.172,0.185,0.0758046301525,0.013,0.172,0.185,0.0758046301525
34840000,100.478949209,145.824245459,77.8063010845,0.6375,0.1525,0.4725,0.0165,0.1455,0.162,0.15422577875,0.0165,0.1455,0.162,0.15422577875,0.0165,0.1455,0.162,0.15422577875,0.0165,0.1455,0.162,0.15422577875,0.0165,0.1455,0.162,0.15422577875,0.0165,0.1455,0.162,0.15422577875
34840000,100.545631317,145.467387429,78.0847532602,0.6745,0.1685,0.5105,0.013,0.1585,0.1715,0.080731700575,0.013,0.1585,0.1715,0.080731700575,0.013,0.1585,0.1715,0.080731700575,0.0125,0.1585,0.171,0.077606700575,0.0125,0.1585,0.171,0.077606700575,0.0125,0.1585,0.171,0.077606700575
34840000,100.569756575,145.408044649,78.1506125384,0.665,0.1685,0.4965,0.0175,0.1655,0.183,0.105701754386,0.0175,0.1655,0.183,0.105701754386,0.0175,0.1655,0.183,0.105701754386,0.0175,0.1655,0.183,0.105701754386,0.0175,0.1655,0.183,0.105701754386,0.0175,0.1655,0.183,0.105701754386
34840000,100.746152815,144.018237506,79.1101104695,0.669,0.1795,0.489,0.009,0.1795,0.1885,0.0500247035573,0.009,0.1795,0.1885,0.0500247035573,0.009,0.1795,0.1885,0.0500247035573,0.009,0.1795,0.1885,0.0500247035573,0.009,0.1795,0.1885,0.0500247035573,0.009,0.1795,0.1885,0.0500247035573
34840000,100.864721643,143.721688699,79.4362381156,0.667,0.232,0.4845,0.011,0.23,0.241,0.0632699765512,0.011,0.23,0.241,0.0632699765512,0.011,0.23,0.241,0.0632699765512,0.011,0.23,0.241,0.0632699765512,0.011,0.23,0.241,0.0632699765512,0.011,0.22,0.231,0.0740924873737
34840000,101.37482182,147.037003911,78.5437307742,0.6655,0.1745,0.5,0.0135,0.16,0.1735,0.0842418546366,0.0135,0.16,0.1735,0.0842418546366,0.0135,0.16,0.1735,0.0842418546366,0.0135,0.16,0.1735,0.0842418546366,0.0135,0.156,0.1695,0.086873433584,0.0135,0.156,0.1695,0.086873433584
34840000,102.239695995,148.064261184,79.3274134011,0.671,0.164,0.4995,0.01,0.164,0.174,0.0607142857143,0.01,0.164,0.174,0.0607142857143,0.01,0.164,0.174,0.0607142857143,0.01,0.164,0.174,0.0607142857143,0.01,0.164,0.174,0.0607142857143,0.01,0.164,0.174,0.0607142857143
34840000,102.257060214,147.198922614,79.7861290141,0.672,0.1685,0.492,0.009,0.15,0.159,0.0602678571429,0.009,0.15,0.159,0.0602678571429,0.009,0.15,0.159,0.0602678571429,0.009,0.15,0.159,0.0602678571429,0.009,0.15,0.159,0.0602678571429,0.009,0.15,0.159,0.0602678571429
34840000,102.408115714,147.055957122,80.0841950106,0.656,0.1665,0.4885,0.013,0.1525,0.1655,0.0858787593985,0.013,0.1525,0.1655,0.0858787593985,0.013,0.1525,0.1655,0.0858787593985,0.013,0.1525,0.1655,0.0858787593985,0.013,0.1525,0.1655,0.0858787593985,0.013,0.1525,0.1655,0.0858787593985
34840000,102.520782337,146.928990931,80.3166780403,0.63,0.1705,0.4575,0.01,0.163,0.173,0.0632215007215,0.01,0.163,0.173,0.0632215007215,0.01,0.163,0.173,0.0632215007215,0.01,0.163,0.173,0.0632215007215,0.01,0.163,0.173,0.0632215007215,0.01,0.163,0.173,0.0632215007215
34840000,102.752504748,147.232815409,80.5123494182,0.6615,0.1665,0.481,0.0305,0.156,0.1865,0.198564593301,0.0305,0.156,0.1865,0.198564593301,0.0305,0.156,0.1865,0.198564593301,0.0305,0.156,0.1865,0.198564593301,0.0305,0.156,0.1865,0.198564593301,0.0305,0.156,0.1865,0.198564593301
34840000,102.996635655,147.520267523,80.7348197215,0.6465,0.1725,0.479,0.034,0.1545,0.1885,0.232834537324,0.034,0.1545,0.1885,0.232834537324,0.034,0.1545,0.1885,0.232834537324,0.034,0.1545,0.1885,0.232834537324,0.034,0.1545,0.1885,0.232834537324,0.034,0.1545,0.1885,0.232834537324
34840000,103.064641741,149.114452423,80.0397363994,0.674,0.207,0.4785,0.0215,0.207,0.2285,0.0871286465036,0.0215,0.207,0.2285,0.0871286465036,0.0215,0.207,0.2285,0.0871286465036,0.0215,0.207,0.2285,0.0871286465036,0.0215,0.207,0.2285,0.0871286465036,0.0215,0.207,0.2285,0.0871286465036
34840000,103.53933685,149.112827875,80.7525913382,0.6515,0.1585,0.492,0.0085,0.129,0.1375,0.0666148544438,0.0085,0.129,0.1375,0.0666148544438,0.0085,0.129,0.1375,0.0666148544438,0.0085,0.129,0.1375,0.0666148544438,0.0085,0.129,0.1375,0.0666148544438,0.0085,0.129,0.1375,0.0666148544438
34840000,103.777817177,149.165921019,81.0837652557,0.6895,0.1675,0.4655,0.016,0.1665,0.1825,0.0961328510671,0.016,0.1665,0.1825,0.0961328510671,0.016,0.1665,0.1825,0.0961328510671,0.016,0.1665,0.1825,0.0961328510671,0.016,0.1665,0.1825,0.0961328510671,0.016,0.1665,0.1825,0.0961328510671
34840000,104.417215485,150.051776335,81.5999350601,0.6555,0.168,0.484,0.011,0.1635,0.1745,0.0678009361639,0.011,0.1635,0.1745,0.0678009361639,0.011,0.1635,0.1745,0.0678009361639,0.011,0.1635,0.1745,0.0678009361639,0.011,0.1635,0.1745,0.0678009361639,0.011,0.1635,0.1745,0.0678009361639
34840000,104.614791577,149.079461762,82.3824564841,0.6475,0.158,0.47,0.014,0.1355,0.1495,0.119102328431,0.014,0.1355,0.1495,0.119102328431,0.014,0.1355,0.1495,0.119102328431,0.014,0.1355,0.1495,0.119102328431,0.014,0.1355,0.1495,0.119102328431,0.014,0.1355,0.1495,0.119102328431
34920000,82.8307978589,95.1603289539,76.6660323114,0.766,0.1765,0.594,0.018,0.168,0.186,0.109090909091,0.018,0.168,0.186,0.109090909091,0.018,0.168,0.186,0.109090909091,0.018,0.168,0.186,0.109090909091,0.016,0.168,0.184,0.0977272727273,0.016,0.168,0.184,0.0977272727273
34920000,85.2573852488,97.65333982,79.0594079632,0.7795,0.177,0.5995,0.0275,0.175,0.2025,0.156926406926,0.0275,0.175,0.2025,0.156926406926,0.0275,0.175,0.2025,0.156926406926,0.0275,0.175,0.2025,0.156926406926,0.0275,0.175,0.2025,0.156926406926,0.0275,0.175,0.2025,0.156926406926
34920000,86.6630020547,96.8906770548,81.5491645546,0.7525,0.166,0.5935,0.0145,0.155,0.1695,0.0932976973684,0.0145,0.155,0.1695,0.0932976973684,0.0145,0.155,0.1695,0.0932976973684,0.0145,0.155,0.1695,0.0932976973684,0.0145,0.155,0.1695,0.0932976973684,0.0145,0.155,0.1695,0.0932976973684
34920000,88.9377173544,99.9542463916,83.4294528358,0.738,0.171,0.574,0.012,0.165,0.177,0.0735863095238,0.012,0.165,0.177,0.0735863095238,0.012,0.165,0.177,0.0735863095238,0.012,0.165,0.177,0.0735863095238,0.012,0.165,0.177,0.0735863095238,0.012,0.165,0.177,0.0735863095238
34920000,89.1356456418,99.1794543596,84.1137412829,0.752,0.16,0.584,0.024,0.16,0.184,0.15,0.024,0.16,0.184,0.15,0.024,0.16,0.184,0.15,0.024,0.16,0.184,0.15,0.024,0.16,0.184,0.15,0.024,0.16,0.184,0.15
34920000,89.5479782953,101.305210736,83.6693620748,0.759,0.163,0.5935,0.013,0.162,0.175,0.0803728070175,0.013,0.162,0.175,0.0803728070175,0.013,0.162,0.175,0.0803728070175,0.013,0.162,0.175,0.0803728070175,0.013,0.162,0.175,0.0803728070175,0.013,0.162,0.175,0.0803728070175
34920000,90.0437762455,102.160847214,83.9852407613,0.7345,0.1645,0.5725,0.0145,0.1595,0.174,0.0930173444976,0.0145,0.1595,0.174,0.0930173444976,0.0145,0.1595,0.174,0.0930173444976,0.0145,0.1595,0.174,0.0930173444976,0.0145,0.1595,0.174,0.0930173444976,0.0145,0.1595,0.174,0.0930173444976
34920000,90.7389947834,102.559761585,84.8286113826,0.7445,0.1685,0.5805,0.02,0.1575,0.1775,0.127235228222,0.02,0.1575,0.1775,0.127235228222,0.02,0.1575,0.1775,0.127235228222,0.02,0.1575,0.1775,0.127235228222,0.02,0.1575,0.1775,0.127235228222,0.02,0.1575,0.1775,0.127235228222
34920000,91.9005173216,104.1681217,85.7667151323,0.775,0.178,0.592,0.0255,0.172,0.1975,0.146689640769,0.0255,0.172,0.1975,0.146689640769,0.0255,0.172,0.1975,0.146689640769,0.0255,0.172,0.1975,0.146689640769,0.0255,0.172,0.1975,0.146689640769,0.0255,0.172,0.1975,0.146689640769
34920000,92.2633435877,104.404140983,86.1929448901,0.754,0.169,0.586,0.014,0.158,0.172,0.0890312903471,0.014,0.158,0.172,0.0890312903471,0.014,0.158,0.172,0.0890312903471,0.014,0.158,0.172,0.0890312903471,0.013,0.158,0.171,0.0827812903471,0.013,0.158,0.171,0.0827812903471
34920000,92.4961907778,104.717080932,86.3857457006,0.742,0.1665,0.581,0.034,0.1655,0.1995,0.202644395079,0.034,0.1655,0.1995,0.202644395079,0.034,0.1655,0.1995,0.202644395079,0.034,0.1655,0.1995,0.202644395079,0.032,0.1655,0.1975,0.191280758715,0.032,0.1655,0.1975,0.191280758715
34920000,95.5878855127,108.370148322,89.1967541082,0.7435,0.2495,0.5815,0.015,0.249,0.264,0.0795269423559,0.015,0.249,0.264,0.0795269423559,0.015,0.249,0.264,0.0795269423559,0.015,0.249,0.264,0.0795269423559,0.015,0.249,0.264,0.0795269423559,0.015,0.249,0.264,0.0795269423559
34960000,88.5902198126,106.660433421,79.5551130083,0.741,0.182,0.5665,0.0095,0.1595,0.169,0.06029383509,0.0095,0.1595,0.169,0.06029383509,0.0095,0.1595,0.169,0.06029383509,0.0095,0.1595,0.169,0.06029383509,0.0095,0.1595,0.169,0.06029383509,0.0095,0.1595,0.169,0.06029383509
34960000,88.8481638211,105.193939379,80.6752760421,0.738,0.185,0.559,0.0115,0.185,0.1965,0.0619441699605,0.0115,0.185,0.1965,0.0619441699605,0.0115,0.185,0.1965,0.0619441699605,0.0115,0.185,0.1965,0.0619441699605,0.0115,0.185,0.1965,0.0619441699605,0.0115,0.185,0.1965,0.0619441699605
34960000,89.0422150248,105.84178761,80.6424287321,0.7225,0.177,0.5515,0.015,0.1685,0.1835,0.0906513112491,0.015,0.1685,0.1835,0.0906513112491,0.015,0.1685,0.1835,0.0906513112491,0.015,0.1685,0.1835,0.0906513112491,0.015,0.1685,0.1835,0.0906513112491,0.015,0.1685,0.1835,0.0906513112491
34960000,91.1980535999,109.33700369,82.128578555,0.739,0.175,0.5635,0.0635,0.173,0.2365,0.36360479798,0.0635,0.172,0.2355,0.365340909091,0.0635,0.172,0.2355,0.365340909091,0.0635,0.172,0.2355,0.365340909091,0.0635,0.172,0.2355,0.365340909091,0.0635,0.172,0.2355,0.365340909091
34960000,91.2488711076,108.753632634,82.4964903445,0.708,0.1745,0.539,0.0135,0.169,0.1825,0.0841529775526,0.0135,0.169,0.1825,0.0841529775526,0.0135,0.169,0.1825,0.0841529775526,0.0135,0.169,0.1825,0.0841529775526,0.0135,0.169,0.1825,0.0841529775526,0.0135,0.169,0.1825,0.0841529775526
34960000,91.5058703267,107.814364426,83.3516232771,0.695,0.176,0.5275,0.013,0.171,0.184,0.0755411255411,0.013,0.171,0.184,0.0755411255411,0.013,0.171,0.184,0.0755411255411,0.013,0.171,0.184,0.0755411255411,0.013,0.171,0.184,0.0755411255411,0.013,0.171,0.184,0.0755411255411
34960000,91.8394305818,109.560825779,82.9787329832,0.728,0.278,0.5535,0.011,0.273,0.284,0.0496617965368,0.011,0.273,0.284,0.0496617965368,0.011,0.273,0.284,0.0496617965368,0.011,0.273,0.284,0.0496617965368,0.011,0.273,0.284,0.0496617965368,0.011,0.273,0.284,0.0496617965368
34960000,92.2052829496,108.226095895,84.194876477,0.7795,0.183,0.5875,0.012,0.1775,0.1895,0.0708721532091,0.012,0.1775,0.1895,0.0708721532091,0.012,0.1775,0.1895,0.0708721532091,0.012,0.1775,0.1895,0.0708721532091,0.012,0.1775,0.1895,0.0708721532091,0.012,0.1775,0.1895,0.0708721532091
34960000,92.4696219064,108.207507515,84.600679102,0.752,0.192,0.584,0.016,0.192,0.208,0.0833333333333,0.016,0.192,0.208,0.0833333333333,0.016,0.192,0.208,0.0833333333333,0.016,0.192,0.208,0.0833333333333,0.016,0.192,0.208,0.0833333333333,0.016,0.192,0.208,0.0833333333333
34960000,92.5630828007,108.271395207,84.7089265974,0.7455,0.185,0.568,0.018,0.1835,0.2015,0.100285046701,0.018,0.1835,0.2015,0.100285046701,0.018,0.1835,0.2015,0.100285046701,0.018,0.1835,0.2015,0.100285046701,0.018,0.1835,0.2015,0.100285046701,0.018,0.1835,0.2015,0.100285046701
34960000,93.064490391,107.613992583,85.789739295,0.7495,0.18,0.5715,0.0115,0.178,0.1895,0.0662086292807,0.0115,0.178,0.1895,0.0662086292807,0.0115,0.178,0.1895,0.0662086292807,0.0115,0.178,0.1895,0.0662086292807,0.0115,0.178,0.1895,0.0662086292807,0.0115,0.178,0.1895,0.0662086292807
34960000,93.1471886374,113.903286273,82.7691398196,0.7405,0.1825,0.555,0.011,0.1635,0.1745,0.0663863008972,0.011,0.1635,0.1745,0.0663863008972,0.011,0.1635,0.1745,0.0663863008972,0.011,0.1635,0.1745,0.0663863008972,0.011,0.1635,0.1745,0.0663863008972,0.011,0.1635,0.1745,0.0663863008972
34960000,93.5684632232,110.312501915,85.1964438774,0.7495,0.2215,0.5255,0.011,0.218,0.229,0.0555555555556,0.011,0.218,0.229,0.0555555555556,0.011,0.218,0.229,0.0555555555556,0.011,0.218,0.229,0.0555555555556,0.011,0.218,0.229,0.0555555555556,0.011,0.218,0.229,0.0555555555556
34960000,94.2978783626,114.26057677,84.3165291588,0.7515,0.1735,0.5765,0.0165,0.162,0.1785,0.115625,0.0165,0.162,0.1785,0.115625,0.0165,0.16,0.1765,0.120833333333,0.0165,0.16,0.1765,0.120833333333,0.0165,0.16,0.1765,0.120833333333,0.0165,0.16,0.1765,0.120833333333
34960000,94.3378765447,110.496304398,86.2586626181,0.7385,0.173,0.547,0.0165,0.1635,0.18,0.100344673442,0.0165,0.1635,0.18,0.100344673442,0.0165,0.1635,0.18,0.100344673442,0.0165,0.1635,0.18,0.100344673442,0.0165,0.1635,0.18,0.100344673442,0.0165,0.1635,0.18,0.100344673442
34960000,94.6633703015,113.825927626,85.0820916392,0.723,0.1795,0.505,0.0085,0.177,0.1855,0.0484301477508,0.0085,0.177,0.1855,0.0484301477508,0.0085,0.177,0.1855,0.0484301477508,0.0085,0.177,0.1855,0.0484301477508,0.0085,0.177,0.1855,0.0484301477508,0.0085,0.177,0.1855,0.0484301477508
34960000,96.4542353659,115.624268739,86.8692186795,0.7455,0.177,0.5595,0.0235,0.172,0.1955,0.138084217461,0.0235,0.172,0.1955,0.138084217461,0.0235,0.172,0.1955,0.138084217461,0.0235,0.172,0.1955,0.138084217461,0.0235,0.172,0.1955,0.138084217461,0.0235,0.172,0.1955,0.138084217461
34960000,97.2170061234,117.007335959,87.3218412058,0.629,0.2515,0.4195,0.0125,0.2485,0.261,0.0508071693683,0.0125,0.2485,0.261,0.0508071693683,0.0125,0.2485,0.261,0.0508071693683,0.0125,0.2485,0.261,0.0508071693683,0.0125,0.2485,0.261,0.0508071693683,0.0125,0.2485,0.261,0.0508071693683
34960000,98.4304373472,117.98975943,88.650776306,0.7165,0.178,0.549,0.017,0.1695,0.1865,0.101546913232,0.017,0.1695,0.1865,0.101546913232,0.017,0.1695,0.1865,0.101546913232,0.017,0.1695,0.1865,0.101546913232,0.017,0.1695,0.1865,0.101546913232,0.017,0.1695,0.1865,0.101546913232
35000000,97.704601475,120.654820759,86.2294918331,0.6785,0.1665,0.5135,0.0175,0.164,0.1815,0.103806474743,0.0175,0.164,0.1815,0.103806474743,0.0175,0.164,0.1815,0.103806474743,0.0175,0.164,0.1815,0.103806474743,0.0175,0.164,0.1815,0.103806474743,0.0175,0.164,0.1815,0.103806474743
35000000,101.704211231,122.811627357,91.1505031685,0.667,0.171,0.501,0.0125,0.162,0.1745,0.0802398989899,0.0125,0.161,0.1735,0.0806739267677,0.0125,0.161,0.1735,0.0806739267677,0.0125,0.161,0.1735,0.0806739267677,0.0125,0.161,0.1735,0.0806739267677,0.0125,0.161,0.1735,0.0806739267677
35000000,103.624006487,125.865845442,92.5030870097,0.665,0.166,0.4985,0.0145,0.1505,0.165,0.0985556722689,0.0145,0.1505,0.165,0.0985556722689,0.0145,0.1505,0.165,0.0985556722689,0.0145,0.1505,0.165,0.0985556722689,0.0145,0.1505,0.165,0.0985556722689,0.014,0.1505,0.1645,0.0954306722689
35000000,106.147377381,126.393192309,96.0244699169,0.683,0.174,0.468,0.028,0.1525,0.1805,0.1868066829,0.028,0.1525,0.1805,0.1868066829,0.028,0.1525,0.1805,0.1868066829,0.028,0.1525,0.1805,0.1868066829,0.028,0.1525,0.1805,0.1868066829,0.028,0.1525,0.1805,0.1868066829
35000000,107.195820643,126.607428424,97.4900167519,0.686,0.1895,0.501,0.0145,0.187,0.2015,0.0752352150538,0.0145,0.187,0.2015,0.0752352150538,0.0145,0.187,0.2015,0.0752352150538,0.0145,0.187,0.2015,0.0752352150538,0.0145,0.187,0.2015,0.0752352150538,0.0145,0.187,0.2015,0.0752352150538
35040000,87.9903100022,130.736195584,66.6173672115,0.718,0.326,0.546,0.01,0.326,0.336,0.0415773430696,0.01,0.326,0.336,0.0415773430696,0.01,0.326,0.336,0.0415773430696,0.01,0.326,0.336,0.0415773430696,0.01,0.326,0.336,0.0415773430696,0.01,0.326,0.336,0.0415773430696
35080000,87.2622399082,134.131121335,63.827799195,0.765,0.253,0.543,0.014,0.2515,0.2655,0.0655527262592,0.014,0.2515,0.2655,0.0655527262592,0.014,0.2515,0.2655,0.0655527262592,0.014,0.2515,0.2655,0.0655527262592,0.014,0.2515,0.2655,0.0655527262592,0.014,0.2515,0.2655,0.0655527262592
35080000,90.3380945138,139.424446857,65.7949183422,0.7625,0.1885,0.574,0.0145,0.1815,0.196,0.0799296536797,0.0145,0.1815,0.196,0.0799296536797,0.0145,0.1815,0.196,0.0799296536797,0.0145,0.1795,0.194,0.0804978354978,0.0145,0.1795,0.194,0.0804978354978,0.0145,0.1795,0.194,0.0804978354978
35080000,90.8546774357,138.61316491,66.9754336984,0.7565,0.25,0.5385,0.0135,0.232,0.2455,0.0586013473242,0.0135,0.232,0.2455,0.0586013473242,0.0135,0.229,0.2425,0.0602317821068,0.0135,0.229,0.2425,0.0602317821068,0.0135,0.229,0.2425,0.0602317821068,0.0135,0.229,0.2425,0.0602317821068
35120000,85.7135833584,133.789159812,61.6757951315,0.7935,0.19,0.5985,0.0175,0.1735,0.191,0.101203710239,0.0175,0.1735,0.191,0.101203710239,0.0175,0.1735,0.191,0.101203710239,0.0175,0.1735,0.191,0.101203710239,0.0175,0.1735,0.191,0.101203710239,0.0175,0.1735,0.191,0.101203710239
35120000,85.9350697243,133.311875944,62.2466666144,0.7835,0.1935,0.593,0.0115,0.1905,0.202,0.0615814393939,0.0115,0.1905,0.202,0.0615814393939,0.0115,0.1905,0.202,0.0615814393939,0.0115,0.1905,0.202,0.0615814393939,0.0115,0.1905,0.202,0.0615814393939,0.0115,0.1905,0.202,0.0615814393939
35120000,86.442562775,134.080953848,62.6233672386,0.7705,0.189,0.575,0.021,0.174,0.195,0.122253787879,0.021,0.174,0.195,0.122253787879,0.021,0.174,0.195,0.122253787879,0.021,0.174,0.195,0.122253787879,0.021,0.174,0.195,0.122253787879,0.021,0.174,0.195,0.122253787879
35120000,86.6916625177,134.79954565,62.6377209515,0.796,0.1985,0.6005,0.02,0.1885,0.2085,0.10495923913,0.02,0.1885,0.2085,0.10495923913,0.02,0.1885,0.2085,0.10495923913,0.02,0.1885,0.2085,0.10495923913,0.02,0.1885,0.2085,0.10495923913,0.02,0.1885,0.2085,0.10495923913
35120000,87.296839001,136.785563675,62.5524766642,0.7895,0.1935,0.595,0.017,0.1775,0.1945,0.0984375,0.017,0.1775,0.1945,0.0984375,0.017,0.1775,0.1945,0.0984375,0.017,0.1775,0.1945,0.0984375,0.017,0.1775,0.1945,0.0984375,0.017,0.1775,0.1945,0.0984375
35120000,87.3202935347,134.26615182,63.8473643923,0.786,0.2185,0.585,0.014,0.2125,0.2265,0.0673579545455,0.014,0.2125,0.2265,0.0673579545455,0.014,0.2125,0.2265,0.0673579545455,0.01,0.2125,0.2225,0.0473579545455,0.01,0.2125,0.2225,0.0473579545455,0.01,0.2125,0.2225,0.0473579545455
35120000,87.6903159893,135.007299155,64.0318244064,0.7745,0.1955,0.58,0.015,0.1945,0.2095,0.0761742424242,0.015,0.1945,0.2095,0.0761742424242,0.015,0.1945,0.2095,0.0761742424242,0.015,0.1945,0.2095,0.0761742424242,0.015,0.1945,0.2095,0.0761742424242,0.015,0.1945,0.2095,0.0761742424242
35120000,88.2630852335,133.568576047,65.6103398269,0.714,0.199,0.5405,0.008,0.1965,0.2045,0.0421923524845,0.008,0.1965,0.2045,0.0421923524845,0.008,0.1965,0.2045,0.0421923524845,0.008,0.1925,0.2005,0.0434454853166,0.008,0.1925,0.2005,0.0434454853166,0.008,0.1925,0.2005,0.0434454853166
35120000,89.2255134679,138.372645511,64.6519474461,0.7675,0.1955,0.5725,0.012,0.188,0.2,0.0657706876457,0.012,0.188,0.2,0.0657706876457,0.012,0.188,0.2,0.0657706876457,0.012,0.188,0.2,0.0657706876457,0.012,0.188,0.2,0.0657706876457,0.012,0.188,0.2,0.0657706876457
35120000,89.2555157798,138.573250325,64.5966485072,0.7865,0.194,0.593,0.017,0.19,0.207,0.0892300724638,0.017,0.19,0.207,0.0892300724638,0.017,0.19,0.207,0.0892300724638,0.017,0.19,0.207,0.0892300724638,0.017,0.19,0.207,0.0892300724638,0.017,0.19,0.207,0.0892300724638
35120000,89.4299666269,137.669489178,65.3102053512,0.762,0.2165,0.565,0.0235,0.214,0.2375,0.11292931629,0.0235,0.214,0.2375,0.11292931629,0.0235,0.214,0.2375,0.11292931629,0.0235,0.214,0.2375,0.11292931629,0.0235,0.214,0.2375,0.11292931629,0.0235,0.214,0.2375,0.11292931629
35120000,89.5834195576,139.003792886,64.8732328934,0.786,0.193,0.5895,0.016,0.182,0.198,0.0862261198946,0.016,0.182,0.198,0.0862261198946,0.016,0.182,0.198,0.0862261198946,0.016,0.182,0.198,0.0862261198946,0.016,0.182,0.198,0.0862261198946,0.016,0.182,0.198,0.0862261198946
35120000,89.7569571236,138.845448127,65.2127116219,0.763,0.1855,0.572,0.012,0.173,0.185,0.070542184265,0.012,0.173,0.185,0.070542184265,0.012,0.173,0.185,0.070542184265,0.012,0.173,0.185,0.070542184265,0.012,0.173,0.185,0.070542184265,0.012,0.173,0.185,0.070542184265
35120000,89.8191043102,138.611604238,65.4228543463,0.772,0.202,0.576,0.0115,0.185,0.1965,0.0619034090909,0.0115,0.185,0.1965,0.0619034090909,0.0115,0.185,0.1965,0.0619034090909,0.0115,0.185,0.1965,0.0619034090909,0.0115,0.185,0.1965,0.0619034090909,0.0115,0.185,0.1965,0.0619034090909
35120000,90.7369644036,139.330163651,66.4403647798,0.77,0.191,0.5785,0.0155,0.177,0.1925,0.0888019362883,0.0155,0.177,0.1925,0.0888019362883,0.0155,0.177,0.1925,0.0888019362883,0.0155,0.177,0.1925,0.0888019362883,0.0155,0.177,0.1925,0.0888019362883,0.0155,0.177,0.1925,0.0888019362883
35120000,91.0337658152,141.415892716,65.8427023651,0.7645,0.1845,0.5755,0.0115,0.1805,0.192,0.0639131022963,0.0115,0.1805,0.192,0.0639131022963,0.0115,0.1805,0.192,0.0639131022963,0.0115,0.1805,0.192,0.0639131022963,0.0115,0.1805,0.192,0.0639131022963,0.0115,0.1805,0.192,0.0639131022963
35120000,91.1132175819,140.712589214,66.3135317658,0.7685,0.186,0.5775,0.016,0.1835,0.1995,0.0891644021739,0.016,0.1835,0.1995,0.0891644021739,0.016,0.1835,0.1995,0.0891644021739,0.016,0.1835,0.1995,0.0891644021739,0.016,0.1835,0.1995,0.0891644021739,0.016,0.1835,0.1995,0.0891644021739
35120000,91.1347188353,141.783699968,65.8102282692,0.7685,0.1955,0.575,0.009,0.1885,0.1975,0.0477471532091,0.009,0.1885,0.1975,0.0477471532091,0.009,0.1885,0.1975,0.0477471532091,0.009,0.1885,0.1975,0.0477471532091,0.009,0.1885,0.1975,0.0477471532091,0.009,0.1885,0.1975,0.0477471532091
35120000,91.2918497133,129.507426668,72.1840612362,0.6315,0.183,0.4525,0.0325,0.175,0.2075,0.187357954545,0.0325,0.175,0.2075,0.187357954545,0.0325,0.175,0.2075,0.187357954545,0.0325,0.175,0.2075,0.187357954545,0.0325,0.175,0.2075,0.187357954545,0.0325,0.175,0.2075,0.187357954545
35120000,91.3514524487,140.301394664,66.876481341,0.7085,0.1935,0.5115,0.009,0.186,0.195,0.0488457556936,0.009,0.186,0.195,0.0488457556936,0.009,0.186,0.195,0.0488457556936,0.009,0.186,0.195,0.0488457556936,0.009,0.186,0.195,0.0488457556936,0.009,0.186,0.195,0.0488457556936
35120000,91.44572689,141.538507818,66.3993364262,0.7785,0.262,0.552,0.011,0.2455,0.2565,0.0532026397516,0.011,0.2455,0.2565,0.0532026397516,0.011,0.2455,0.2565,0.0532026397516,0.011,0.2455,0.2565,0.0532026397516,0.011,0.2455,0.2565,0.0532026397516,0.011,0.2455,0.2565,0.0532026397516
35120000,91.5047070635,143.493753405,65.5101838925,0.798,0.18,0.6135,0.015,0.172,0.187,0.0860995435724,0.015,0.172,0.187,0.0860995435724,0.015,0.172,0.187,0.0860995435724,0.015,0.172,0.187,0.0860995435724,0.015,0.172,0.187,0.0860995435724,0.015,0.172,0.187,0.0860995435724
35120000,91.581797498,141.082367081,66.8315127066,0.765,0.187,0.581,0.011,0.18,0.191,0.0621206239413,0.011,0.18,0.191,0.0621206239413,0.011,0.18,0.191,0.0621206239413,0.011,0.18,0.191,0.0621206239413,0.011,0.18,0.191,0.0621206239413,0.011,0.18,0.191,0.0621206239413
35120000,91.8678575248,142.466342042,66.5686152662,0.7765,0.1885,0.5845,0.016,0.184,0.2,0.0858879316102,0.016,0.184,0.2,0.0858879316102,0.016,0.184,0.2,0.0858879316102,0.016,0.184,0.2,0.0858879316102,0.016,0.1835,0.1995,0.0860895445135,0.016,0.1835,0.1995,0.0860895445135
35120000,91.9548879234,142.664246433,66.6002086687,0.774,0.1935,0.581,0.008,0.1765,0.1845,0.0453986683606,0.008,0.1765,0.1845,0.0453986683606,0.008,0.1765,0.1845,0.0453986683606,0.008,0.1765,0.1845,0.0453986683606,0.008,0.1765,0.1845,0.0453986683606,0.008,0.1765,0.1845,0.0453986683606
35120000,92.3063133308,143.223456929,66.8477415315,0.753,0.1905,0.5595,0.029,0.19,0.219,0.151721014493,0.029,0.19,0.219,0.151721014493,0.029,0.19,0.219,0.151721014493,0.029,0.19,0.219,0.151721014493,0.029,0.19,0.219,0.151721014493,0.029,0.19,0.219,0.151721014493
35120000,92.3307481552,143.236205369,66.8780195484,0.7855,0.228,0.5805,0.014,0.217,0.231,0.0742125250957,0.014,0.217,0.231,0.0742125250957,0.014,0.217,0.231,0.0742125250957,0.014,0.217,0.231,0.0742125250957,0.014,0.217,0.231,0.0742125250957,0.014,0.217,0.231,0.0742125250957
35120000,92.4735222639,143.643324627,66.8886210822,0.774,0.1895,0.583,0.012,0.178,0.19,0.0668966450216,0.012,0.178,0.19,0.0668966450216,0.012,0.178,0.19,0.0668966450216,0.012,0.178,0.19,0.0668966450216,0.012,0.178,0.19,0.0668966450216,0.012,0.178,0.19,0.0668966450216
35120000,92.5636276052,141.679502935,68.0056899402,0.772,0.1855,0.5815,0.019,0.1785,0.1975,0.105509187371,0.019,0.1785,0.1975,0.105509187371,0.019,0.1785,0.1975,0.105509187371,0.019,0.1785,0.1975,0.105509187371,0.019,0.1785,0.1975,0.105509187371,0.019,0.1785,0.1975,0.105509187371
35120000,92.5911570355,143.456164817,67.1586531449,0.7615,0.1875,0.5825,0.026,0.1805,0.2065,0.148885987201,0.026,0.1805,0.2065,0.148885987201,0.026,0.1805,0.2065,0.148885987201,0.026,0.1805,0.2065,0.148885987201,0.026,0.1805,0.2065,0.148885987201,0.026,0.1805,0.2065,0.148885987201
35120000,92.6660627472,142.074138462,67.96202489,0.764,0.194,0.57,0.014,0.1845,0.1985,0.0792087215321,0.014,0.1845,0.1985,0.0792087215321,0.014,0.1845,0.1985,0.0792087215321,0.014,0.1845,0.1985,0.0792087215321,0.014,0.1845,0.1985,0.0792087215321,0.014,0.1845,0.1985,0.0792087215321
35120000,93.3616433098,143.327143527,68.3788932013,0.727,0.183,0.5405,0.014,0.1725,0.1865,0.0825057641634,0.014,0.1725,0.1865,0.0825057641634,0.014,0.1725,0.1865,0.0825057641634,0.014,0.1725,0.1865,0.0825057641634,0.014,0.1725,0.1865,0.0825057641634,0.014,0.1725,0.1865,0.0825057641634
35120000,93.4580625306,144.762071222,67.8060581846,0.7685,0.1825,0.496,0.0245,0.176,0.2005,0.135731637022,0.0245,0.176,0.2005,0.135731637022,0.0245,0.176,0.2005,0.135731637022,0.0245,0.176,0.2005,0.135731637022,0.0245,0.176,0.2005,0.135731637022,0.0245,0.176,0.2005,0.135731637022
35120000,93.4975472849,145.069693786,67.7114740342,0.7585,0.178,0.5765,0.0155,0.17,0.1855,0.0895703933747,0.0155,0.17,0.1855,0.0895703933747,0.0155,0.17,0.1855,0.0895703933747,0.0155,0.17,0.1855,0.0895703933747,0.0155,0.17,0.1855,0.0895703933747,0.0155,0.17,0.1855,0.0895703933747
35120000,93.70707313,145.522585126,67.7993171321,0.7715,0.1925,0.4805,0.011,0.1825,0.1935,0.0606027667984,0.011,0.1825,0.1935,0.0606027667984,0.011,0.1825,0.1935,0.0606027667984,0.011,0.1825,0.1935,0.0606027667984,0.011,0.1825,0.1935,0.0606027667984,0.011,0.1795,0.1905,0.0613922404826
35120000,93.8450608609,144.097681518,68.7187505321,0.7635,0.1935,0.5705,0.0175,0.19,0.2075,0.0912952898551,0.0175,0.19,0.2075,0.0912952898551,0.0175,0.19,0.2075,0.0912952898551,0.0175,0.19,0.2075,0.0912952898551,0.0175,0.19,0.2075,0.0912952898551,0.0175,0.19,0.2075,0.0912952898551
35120000,93.9630041338,145.854987574,68.0170124137,0.7575,0.184,0.5675,0.01,0.1805,0.1905,0.0558770939206,0.01,0.1805,0.1905,0.0558770939206,0.01,0.1805,0.1905,0.0558770939206,0.01,0.18,0.19,0.0561747129682,0.01,0.18,0.19,0.0561747129682,0.01,0.18,0.19,0.0561747129682
35120000,94.1085138836,145.644360597,68.340590527,0.746,0.1995,0.567,0.016,0.1915,0.2075,0.0823552489177,0.016,0.1915,0.2075,0.0823552489177,0.016,0.1915,0.2075,0.0823552489177,0.016,0.1915,0.2075,0.0823552489177,0.016,0.1915,0.2075,0.0823552489177,0.016,0.1915,0.2075,0.0823552489177
35120000,94.3578104545,146.176976345,68.448227509,0.7375,0.172,0.564,0.0115,0.1675,0.179,0.0680041878411,0.0115,0.1675,0.179,0.0680041878411,0.0115,0.1675,0.179,0.0680041878411,0.0115,0.1675,0.179,0.0680041878411,0.0115,0.1675,0.179,0.0680041878411,0.0115,0.1675,0.179,0.0680041878411
35120000,94.6991172023,146.881298296,68.6080266555,0.77,0.195,0.5815,0.022,0.194,0.216,0.118301314459,0.022,0.194,0.216,0.118301314459,0.022,0.194,0.216,0.118301314459,0.022,0.194,0.216,0.118301314459,0.022,0.194,0.216,0.118301314459,0.022,0.194,0.216,0.118301314459
35120000,94.9089091799,146.83257393,68.9470768047,0.736,0.192,0.5505,0.0125,0.1795,0.192,0.0703154408997,0.0125,0.1795,0.192,0.0703154408997,0.0125,0.1795,0.192,0.0703154408997,0.0125,0.1795,0.192,0.0703154408997,0.0125,0.1795,0.192,0.0703154408997,0.0125,0.1795,0.192,0.0703154408997
35120000,94.9300800203,146.811908572,68.9891657446,0.769,0.189,0.5795,0.0205,0.1865,0.207,0.109836956522,0.0205,0.1865,0.207,0.109836956522,0.0205,0.1865,0.207,0.109836956522,0.0205,0.1865,0.207,0.109836956522,0.0205,0.1865,0.207,0.109836956522,0.0205,0.1865,0.207,0.109836956522
35120000,94.9760515871,147.510722066,68.7087163474,0.7735,0.185,0.59,0.0115,0.182,0.1935,0.06354743083,0.0115,0.182,0.1935,0.06354743083,0.0115,0.182,0.1935,0.06354743083,0.0115,0.182,0.1935,0.06354743083,0.0115,0.182,0.1935,0.06354743083,0.0115,0.182,0.1935,0.06354743083
35120000,95.19633798,147.544411757,69.0223010914,0.775,0.212,0.5875,0.0145,0.196,0.2105,0.0763293467248,0.0145,0.196,0.2105,0.0763293467248,0.0145,0.196,0.2105,0.0763293467248,0.0145,0.196,0.2105,0.0763293467248,0.0145,0.196,0.2105,0.0763293467248,0.0145,0.196,0.2105,0.0763293467248
35120000,95.4310582673,148.923747955,68.6847134235,0.78,0.1695,0.501,0.021,0.1465,0.1675,0.155416254941,0.021,0.1465,0.1675,0.155416254941,0.021,0.1465,0.1675,0.155416254941,0.021,0.1465,0.1675,0.155416254941,0.021,0.1465,0.1675,0.155416254941,0.021,0.1465,0.1675,0.155416254941
35120000,95.4476838793,146.707577092,69.8177372729,0.7595,0.1905,0.5715,0.012,0.1775,0.1895,0.071220680778,0.012,0.1775,0.1895,0.071220680778,0.012,0.1775,0.1895,0.071220680778,0.012,0.1775,0.1895,0.071220680778,0.012,0.1775,0.1895,0.071220680778,0.012,0.1775,0.1895,0.071220680778
35120000,95.4547143476,147.089804543,69.6371692497,0.7575,0.2075,0.5715,0.016,0.206,0.222,0.073994394848,0.016,0.206,0.222,0.073994394848,0.016,0.206,0.222,0.073994394848,0.016,0.206,0.222,0.073994394848,0.016,0.206,0.222,0.073994394848,0.016,0.206,0.222,0.073994394848
35120000,95.7273367924,147.454514207,69.8637480852,0.769,0.1825,0.5735,0.015,0.167,0.182,0.0924129461739,0.015,0.167,0.182,0.0924129461739,0.015,0.167,0.182,0.0924129461739,0.015,0.167,0.182,0.0924129461739,0.015,0.167,0.182,0.0924129461739,0.015,0.167,0.182,0.0924129461739
35120000,95.7613552551,148.922317306,69.1808742298,0.7425,0.191,0.5495,0.0165,0.1805,0.197,0.0906126482213,0.0165,0.1805,0.197,0.0906126482213,0.0165,0.1805,0.197,0.0906126482213,0.0165,0.1805,0.197,0.0906126482213,0.0165,0.1805,0.197,0.0906126482213,0.0165,0.1805,0.197,0.0906126482213
35120000,96.2376328553,146.729345963,70.9917763017,0.762,0.1835,0.566,0.0165,0.1735,0.19,0.0965327380952,0.0165,0.1735,0.19,0.0965327380952,0.0165,0.1735,0.19,0.0965327380952,0.0165,0.1735,0.19,0.0965327380952,0.0165,0.1735,0.19,0.0965327380952,0.0165,0.1735,0.19,0.0965327380952
35120000,96.641733712,148.005081411,70.9600598625,0.755,0.183,0.5745,0.0155,0.178,0.1935,0.0870321028609,0.0155,0.178,0.1935,0.0870321028609,0.0155,0.178,0.1935,0.0870321028609,0.0155,0.178,0.1935,0.0870321028609,0.0155,0.178,0.1935,0.0870321028609,0.0155,0.178,0.1935,0.0870321028609
35120000,96.7096871257,149.785613869,70.1717237541,0.763,0.177,0.587,0.009,0.1725,0.1815,0.0526920995671,0.009,0.1725,0.1815,0.0526920995671,0.009,0.1725,0.1815,0.0526920995671,0.009,0.1725,0.1815,0.0526920995671,0.009,0.1725,0.1815,0.0526920995671,0.009,0.1725,0.1815,0.0526920995671
35120000,97.361916549,149.376311576,71.3547190356,0.7315,0.188,0.5455,0.01,0.1795,0.1895,0.0558007853131,0.01,0.1795,0.1895,0.0558007853131,0.01,0.1795,0.1895,0.0558007853131,0.01,0.1795,0.1895,0.0558007853131,0.01,0.1795,0.1895,0.0558007853131,0.01,0.1795,0.1895,0.0558007853131
35120000,98.2785276813,150.331025823,72.2522786103,0.7465,0.1755,0.5665,0.0125,0.1675,0.18,0.0770933014354,0.0125,0.1675,0.18,0.0770933014354,0.0125,0.1675,0.18,0.0770933014354,0.0125,0.1675,0.18,0.0770933014354,0.0125,0.1675,0.18,0.0770933014354,0.0125,0.1675,0.18,0.0770933014354
35200000,86.1101722499,123.144740024,67.5928883631,0.6855,0.2015,0.489,0.008,0.1805,0.1885,0.0443767057218,0.008,0.1805,0.1885,0.0443767057218,0.008,0.1805,0.1885,0.0443767057218,0.008,0.1805,0.1885,0.0443767057218,0.008,0.1805,0.1885,0.0443767057218,0.008,0.1805,0.1885,0.0443767057218
35200000,86.417707653,133.070357137,63.0913829108,0.664,0.176,0.488,0.008,0.148,0.156,0.0616666666667,0.008,0.148,0.156,0.0616666666667,0.008,0.148,0.156,0.0616666666667,0.008,0.148,0.156,0.0616666666667,0.008,0.148,0.156,0.0616666666667,0.008,0.148,0.156,0.0616666666667
35200000,86.8995158199,135.306734742,62.695906359,0.7535,0.195,0.5565,0.014,0.191,0.205,0.0732088744589,0.014,0.191,0.205,0.0732088744589,0.014,0.191,0.205,0.0732088744589,0.014,0.191,0.205,0.0732088744589,0.014,0.191,0.205,0.0732088744589,0.014,0.191,0.205,0.0732088744589
35200000,88.1955030083,139.421623496,62.5824427643,0.8245,0.198,0.62,0.0125,0.1955,0.208,0.0634659090909,0.0125,0.1955,0.208,0.0634659090909,0.0125,0.1955,0.208,0.0634659090909,0.0125,0.1955,0.208,0.0634659090909,0.0125,0.1955,0.208,0.0634659090909,0.0125,0.1955,0.208,0.0634659090909
35200000,89.5702601689,140.341768113,64.1845061968,0.826,0.2035,0.624,0.013,0.1935,0.2065,0.0674038461538,0.013,0.1935,0.2065,0.0674038461538,0.013,0.1935,0.2065,0.0674038461538,0.013,0.1935,0.2065,0.0674038461538,0.013,0.1935,0.2065,0.0674038461538,0.013,0.1935,0.2065,0.0674038461538
35200000,89.8967541277,137.928095509,65.8810834371,0.7135,0.2005,0.513,0.0195,0.197,0.2165,0.0982108516484,0.0195,0.197,0.2165,0.0982108516484,0.0175,0.197,0.2145,0.0877941849817,0.0175,0.197,0.2145,0.0877941849817,0.0175,0.197,0.2145,0.0877941849817,0.0175,0.197,0.2145,0.0877941849817
35200000,91.3435472208,141.577577365,66.2265321488,0.765,0.1935,0.5685,0.015,0.1875,0.2025,0.0812894080557,0.015,0.1875,0.2025,0.0812894080557,0.015,0.1875,0.2025,0.0812894080557,0.015,0.1875,0.2025,0.0812894080557,0.015,0.1875,0.2025,0.0812894080557,0.015,0.1875,0.2025,0.0812894080557
35200000,92.0821130363,140.379046987,67.9336460612,0.752,0.183,0.5635,0.009,0.176,0.185,0.0539451581028,0.009,0.176,0.185,0.0539451581028,0.009,0.176,0.185,0.0539451581028,0.009,0.176,0.185,0.0539451581028,0.009,0.176,0.185,0.0539451581028,0.009,0.176,0.185,0.0539451581028
35200000,92.193956181,141.136704342,67.7225821006,0.737,0.1995,0.5375,0.012,0.194,0.206,0.0625724637681,0.012,0.194,0.206,0.0625724637681,0.012,0.194,0.206,0.0625724637681,0.012,0.194,0.206,0.0625724637681,0.012,0.194,0.206,0.0625724637681,0.012,0.194,0.206,0.0625724637681
35200000,92.346662525,144.659171713,66.1904079311,0.81,0.194,0.6165,0.014,0.192,0.206,0.0729166666667,0.0135,0.192,0.2055,0.0703125,0.0135,0.192,0.2055,0.0703125,0.0135,0.192,0.2055,0.0703125,0.0135,0.192,0.2055,0.0703125,0.0135,0.192,0.2055,0.0703125
35200000,92.3561616046,141.236710862,67.9158869761,0.7075,0.1975,0.5305,0.0115,0.19,0.2015,0.0606884057971,0.0115,0.19,0.2015,0.0606884057971,0.0115,0.19,0.2015,0.0606884057971,0.0115,0.19,0.2015,0.0606884057971,0.0115,0.19,0.2015,0.0606884057971,0.0115,0.19,0.2015,0.0606884057971
35200000,92.4038589575,144.413469676,66.399053598,0.815,0.202,0.6155,0.012,0.2005,0.2125,0.0607932692308,0.012,0.2005,0.2125,0.0607932692308,0.012,0.2005,0.2125,0.0607932692308,0.012,0.2005,0.2125,0.0607932692308,0.012,0.2005,0.2125,0.0607932692308,0.012,0.2005,0.2125,0.0607932692308
35200000,92.6373842287,142.171041543,67.8705555713,0.769,0.2035,0.573,0.0135,0.1945,0.208,0.0677430555556,0.0135,0.1945,0.208,0.0677430555556,0.0135,0.1945,0.208,0.0677430555556,0.0135,0.1945,0.208,0.0677430555556,0.0135,0.1945,0.208,0.0677430555556,0.0135,0.1945,0.208,0.0677430555556
35200000,92.6478147392,143.455868285,67.2437879664,0.7535,0.1905,0.5575,0.0205,0.1765,0.197,0.116438041126,0.0205,0.1765,0.197,0.116438041126,0.0205,0.1765,0.197,0.116438041126,0.0205,0.1765,0.197,0.116438041126,0.0205,0.1765,0.197,0.116438041126,0.0205,0.1765,0.197,0.116438041126
35200000,93.3068083286,145.838670197,67.0408773944,0.8015,0.1975,0.596,0.0095,0.1915,0.201,0.0507770445135,0.0095,0.1915,0.201,0.0507770445135,0.0095,0.1915,0.201,0.0507770445135,0.0095,0.1915,0.201,0.0507770445135,0.0095,0.1915,0.201,0.0507770445135,0.0095,0.1915,0.201,0.0507770445135
35200000,93.5486484826,143.597611367,68.5241670403,0.7635,0.1985,0.563,0.0245,0.185,0.2095,0.130867886642,0.0245,0.185,0.2095,0.130867886642,0.0245,0.185,0.2095,0.130867886642,0.0245,0.185,0.2095,0.130867886642,0.0245,0.185,0.2095,0.130867886642,0.0245,0.185,0.2095,0.130867886642
35200000,93.7021667418,145.031004208,68.0377480088,0.7935,0.195,0.5995,0.023,0.181,0.204,0.131315993789,0.023,0.177,0.2,0.136077898551,0.023,0.177,0.2,0.136077898551,0.023,0.177,0.2,0.136077898551,0.023,0.177,0.2,0.136077898551,0.023,0.177,0.2,0.136077898551
35200000,94.1223703446,144.93586566,68.7156226868,0.7935,0.2015,0.592,0.0125,0.199,0.2115,0.063453525641,0.0125,0.199,0.2115,0.063453525641,0.0125,0.199,0.2115,0.063453525641,0.0125,0.199,0.2115,0.063453525641,0.0125,0.199,0.2115,0.063453525641,0.0125,0.199,0.2115,0.063453525641
35200000,94.5226403151,145.568895063,68.999512941,0.768,0.191,0.5675,0.03,0.189,0.219,0.161116600791,0.03,0.189,0.219,0.161116600791,0.03,0.189,0.219,0.161116600791,0.03,0.189,0.219,0.161116600791,0.03,0.189,0.219,0.161116600791,0.03,0.189,0.219,0.161116600791
35200000,94.5650078046,143.983137037,69.8559431886,0.8275,0.193,0.6355,0.008,0.187,0.195,0.0429464285714,0.008,0.187,0.195,0.0429464285714,0.008,0.187,0.195,0.0429464285714,0.008,0.187,0.195,0.0429464285714,0.008,0.187,0.195,0.0429464285714,0.008,0.187,0.195,0.0429464285714
35200000,95.3694802028,146.675292419,69.7165740948,0.752,0.2015,0.5485,0.0285,0.1965,0.225,0.143360507246,0.0285,0.1965,0.225,0.143360507246,0.0285,0.1965,0.225,0.143360507246,0.0285,0.1965,0.225,0.143360507246,0.0285,0.1965,0.225,0.143360507246,0.0285,0.1965,0.225,0.143360507246
35200000,95.501619533,145.662143925,70.4213573369,0.734,0.1915,0.539,0.028,0.191,0.219,0.146134386447,0.028,0.191,0.219,0.146134386447,0.028,0.187,0.215,0.14946771978,0.028,0.187,0.215,0.14946771978,0.028,0.187,0.215,0.14946771978,0.028,0.187,0.215,0.14946771978
35200000,95.6970064603,148.355408208,69.3678055865,0.768,0.179,0.574,0.036,0.1685,0.2045,0.227552977713,0.036,0.1685,0.2045,0.227552977713,0.036,0.1685,0.2045,0.227552977713,0.024,0.1685,0.1925,0.139317683595,0.024,0.1685,0.1925,0.139317683595,0.024,0.1685,0.1925,0.139317683595
35200000,95.8983412837,147.592544411,70.0512397199,0.758,0.2595,0.558,0.014,0.256,0.27,0.0647630503237,0.014,0.256,0.27,0.0647630503237,0.014,0.256,0.27,0.0647630503237,0.014,0.256,0.27,0.0647630503237,0.014,0.256,0.27,0.0647630503237,0.014,0.256,0.27,0.0647630503237
35200000,96.0510093973,147.206428486,70.4732998529,0.7485,0.1965,0.551,0.011,0.189,0.2,0.0587643787372,0.011,0.189,0.2,0.0587643787372,0.011,0.189,0.2,0.0587643787372,0.011,0.189,0.2,0.0587643787372,0.011,0.189,0.2,0.0587643787372,0.011,0.189,0.2,0.0587643787372
35200000,96.9277248373,148.938034776,70.9225698681,0.7435,0.197,0.539,0.0125,0.1915,0.204,0.0651222826087,0.0125,0.1915,0.204,0.0651222826087,0.0125,0.1915,0.204,0.0651222826087,0.0125,0.1915,0.204,0.0651222826087,0.0125,0.1915,0.204,0.0651222826087,0.0125,0.1915,0.204,0.0651222826087
35200000,96.9421411289,148.213414019,71.3065046839,0.742,0.1995,0.547,0.0095,0.1975,0.207,0.0487310606061,0.0095,0.1975,0.207,0.0487310606061,0.0095,0.1975,0.207,0.0487310606061,0.0095,0.1975,0.207,0.0487310606061,0.0095,0.1975,0.207,0.0487310606061,0.0095,0.1975,0.207,0.0487310606061
35200000,97.3409750977,149.261901846,71.3805117233,0.7565,0.2015,0.556,0.015,0.2015,0.2165,0.0739903846154,0.015,0.2015,0.2165,0.0739903846154,0.015,0.2015,0.2165,0.0739903846154,0.015,0.2015,0.2165,0.0739903846154,0.015,0.2015,0.2165,0.0739903846154,0.015,0.2015,0.2165,0.0739903846154
35200000,97.3452848073,148.49007509,71.7728896659,0.7395,0.2,0.5395,0.0105,0.1955,0.206,0.053556547619,0.0105,0.1955,0.206,0.053556547619,0.0105,0.1955,0.206,0.053556547619,0.0105,0.1955,0.206,0.053556547619,0.0105,0.1955,0.206,0.053556547619,0.0105,0.1955,0.206,0.053556547619
35200000,97.4436161544,149.02347025,71.6536891064,0.7495,0.1905,0.555,0.0135,0.1875,0.201,0.072290601023,0.0135,0.1875,0.201,0.072290601023,0.0135,0.1875,0.201,0.072290601023,0.0135,0.1875,0.201,0.072290601023,0.0135,0.1875,0.201,0.072290601023,0.0135,0.1875,0.201,0.072290601023
35200000,98.265396502,149.75707212,72.5195586933,0.7175,0.189,0.5235,0.036,0.1885,0.2245,0.192830615942,0.036,0.1885,0.2245,0.192830615942,0.036,0.1885,0.2245,0.192830615942,0.036,0.1885,0.2245,0.192830615942,0.036,0.1885,0.2245,0.192830615942,0.036,0.1885,0.2245,0.192830615942
35200000,98.4513329293,149.941406066,72.706296361,0.751,0.1995,0.548,0.0095,0.1915,0.201,0.049705615942,0.0095,0.1915,0.201,0.049705615942,0.0095,0.1915,0.201,0.049705615942,0.0095,0.1915,0.201,0.049705615942,0.0095,0.1915,0.201,0.049705615942,0.0095,0.1915,0.201,0.049705615942
35200000,98.7185319933,148.943805291,73.6058953444,0.7475,0.192,0.548,0.0135,0.18,0.1935,0.0759886128364,0.0135,0.18,0.1935,0.0759886128364,0.0135,0.18,0.1935,0.0759886128364,0.0135,0.18,0.1935,0.0759886128364,0.0135,0.18,0.1935,0.0759886128364,0.0135,0.18,0.1935,0.0759886128364
35200000,98.8182984391,149.390699881,73.5320977181,0.7125,0.2045,0.5145,0.0135,0.1985,0.212,0.0671641899767,0.0135,0.1985,0.212,0.0671641899767,0.0135,0.1985,0.212,0.0671641899767,0.0135,0.1985,0.212,0.0671641899767,0.0135,0.1985,0.212,0.0671641899767,0.0135,0.1985,0.212,0.0671641899767
35200000,98.8251811182,149.888796248,73.2933735531,0.722,0.194,0.528,0.014,0.188,0.202,0.0743432971014,0.014,0.188,0.202,0.0743432971014,0.014,0.188,0.202,0.0743432971014,0.014,0.188,0.202,0.0743432971014,0.014,0.188,0.202,0.0743432971014,0.014,0.188,0.202,0.0743432971014
35200000,98.9894876425,149.879760473,73.5443512271,0.758,0.358,0.4805,0.016,0.3565,0.3725,0.0560489676031,0.016,0.3565,0.3725,0.0560489676031,0.016,0.3565,0.3725,0.0560489676031,0.016,0.3565,0.3725,0.0560489676031,0.016,0.3565,0.3725,0.0560489676031,0.016,0.3565,0.3725,0.0560489676031
35200000,99.0687823022,150.146779166,73.52978387,0.7325,0.1955,0.542,0.0235,0.1915,0.215,0.122215909091,0.0235,0.1915,0.215,0.122215909091,0.0235,0.1915,0.215,0.122215909091,0.0235,0.1915,0.215,0.122215909091,0.0235,0.1915,0.215,0.122215909091,0.0235,0.1915,0.215,0.122215909091
35200000,99.6051307268,149.280243084,74.767574548,0.746,0.2015,0.5445,0.013,0.1955,0.2085,0.0669172494172,0.013,0.1955,0.2085,0.0669172494172,0.013,0.1955,0.2085,0.0669172494172,0.013,0.1955,0.2085,0.0669172494172,0.013,0.1955,0.2085,0.0669172494172,0.013,0.1955,0.2085,0.0669172494172
35200000,100.047280988,149.522902567,75.3094701988,0.712,0.204,0.5095,0.016,0.204,0.22,0.0786206896552,0.016,0.204,0.22,0.0786206896552,0.016,0.204,0.22,0.0786206896552,0.016,0.204,0.22,0.0786206896552,0.016,0.204,0.22,0.0786206896552,0.016,0.204,0.22,0.0786206896552
