ID,mbp,sbp,dbp,cp,sut,dt,dt10,st10,st10_p_dt10,st10_d_dt10,dt25,st25,st25_p_dt25,st25_d_dt25,dt33,st33,st33_p_dt33,st33_d_dt33,dt50,st50,st50_p_dt50,st50_d_dt50,dt66,st66,st66_p_dt66,st66_d_dt66,dt75,st75,st75_p_dt75,st75_d_dt75
34040000,92.8962079819,128.671592073,75.0085159362,0.7635,0.1965,0.548,0.015,0.194,0.209,0.0756107660455,0.015,0.194,0.209,0.0756107660455,0.014,0.194,0.208,0.0711464803313,0.014,0.194,0.208,0.0711464803313,0.014,0.194,0.208,0.0711464803313,0.014,0.194,0.208,0.0711464803313
34040000,94.9826234776,133.153119803,75.8973753151,0.7655,0.25,0.5495,0.019,0.2365,0.2555,0.0914116520734,0.019,0.2365,0.2555,0.0914116520734,0.019,0.2365,0.2555,0.0914116520734,0.019,0.2365,0.2555,0.0914116520734,0.019,0.2365,0.2555,0.0914116520734,0.019,0.2365,0.2555,0.0914116520734
34040000,95.0504744467,131.953541611,76.5989408647,0.75,0.195,0.5475,0.0355,0.153,0.1885,0.246467288839,0.0355,0.153,0.1885,0.246467288839,0.0355,0.153,0.1885,0.246467288839,0.0355,0.153,0.1885,0.246467288839,0.0355,0.153,0.1885,0.246467288839,0.0355,0.153,0.1885,0.246467288839
34040000,95.2303054872,132.774178552,76.458368955,0.7405,0.229,0.54,0.026,0.2275,0.2535,0.115009203759,0.026,0.2275,0.2535,0.115009203759,0.026,0.2275,0.2535,0.115009203759,0.026,0.2275,0.2535,0.115009203759,0.026,0.2275,0.2535,0.115009203759,0.026,0.2275,0.2535,0.115009203759
34040000,95.5416989288,132.63392703,76.9955848779,0.741,0.242,0.487,0.014,0.234,0.248,0.0619207875458,0.014,0.234,0.248,0.0619207875458,0.014,0.234,0.248,0.0619207875458,0.014,0.234,0.248,0.0619207875458,0.014,0.234,0.248,0.0619207875458,0.014,0.234,0.248,0.0619207875458
34040000,96.6247779105,134.714819453,77.5797571395,0.741,0.212,0.498,0.014,0.2055,0.2195,0.0695018313989,0.014,0.2055,0.2195,0.0695018313989,0.014,0.2055,0.2195,0.0695018313989,0.014,0.2055,0.2195,0.0695018313989,0.01,0.2055,0.2155,0.0477627009642,0.01,0.2055,0.2155,0.0477627009642
34040000,97.0326071727,136.613532674,77.2421444223,0.7495,0.1995,0.544,0.0175,0.1935,0.211,0.0910655115818,0.0175,0.1935,0.211,0.0910655115818,0.0175,0.1935,0.211,0.0910655115818,0.0175,0.1935,0.211,0.0910655115818,0.0175,0.1935,0.211,0.0910655115818,0.0175,0.1935,0.211,0.0910655115818
34040000,97.1267710984,135.577944418,77.9011844384,0.72,0.214,0.51,0.0175,0.214,0.2315,0.0824897807507,0.0175,0.214,0.2315,0.0824897807507,0.0175,0.214,0.2315,0.0824897807507,0.0175,0.214,0.2315,0.0824897807507,0.0175,0.214,0.2315,0.0824897807507,0.0175,0.214,0.2315,0.0824897807507
34040000,97.2190149813,134.264113419,78.6964657623,0.7585,0.236,0.4955,0.025,0.2335,0.2585,0.115214114519,0.025,0.2335,0.2585,0.115214114519,0.025,0.2335,0.2585,0.115214114519,0.025,0.2335,0.2585,0.115214114519,0.025,0.2335,0.2585,0.115214114519,0.025,0.2335,0.2585,0.115214114519
34040000,97.224771557,135.148359713,78.2629774788,0.744,0.209,0.5265,0.0355,0.2045,0.24,0.173603988604,0.0355,0.2045,0.24,0.173603988604,0.0355,0.2045,0.24,0.173603988604,0.0355,0.2045,0.24,0.173603988604,0.0355,0.2045,0.24,0.173603988604,0.0355,0.2045,0.24,0.173603988604
34040000,97.9038070709,137.751495287,77.9799629627,0.7285,0.223,0.519,0.011,0.217,0.228,0.0511011452316,0.011,0.217,0.228,0.0511011452316,0.011,0.217,0.228,0.0511011452316,0.011,0.217,0.228,0.0511011452316,0.011,0.217,0.228,0.0511011452316,0.011,0.217,0.228,0.0511011452316
34040000,98.0141128365,137.809540306,78.1163991018,0.814,0.2035,0.612,0.008,0.186,0.194,0.0434499920369,0.008,0.186,0.194,0.0434499920369,0.008,0.186,0.194,0.0434499920369,0.008,0.186,0.194,0.0434499920369,0.008,0.186,0.194,0.0434499920369,0.008,0.186,0.194,0.0434499920369
34040000,98.2809961178,137.378299072,78.7323446408,0.736,0.2015,0.525,0.014,0.197,0.211,0.0708283011272,0.014,0.197,0.211,0.0708283011272,0.014,0.197,0.211,0.0708283011272,0.014,0.197,0.211,0.0708283011272,0.014,0.197,0.211,0.0708283011272,0.014,0.197,0.211,0.0708283011272
34040000,98.6900786707,138.345180439,78.8625277865,0.7405,0.2235,0.5365,0.0125,0.207,0.2195,0.0667572113092,0.0125,0.207,0.2195,0.0667572113092,0.0125,0.207,0.2195,0.0667572113092,0.0125,0.207,0.2195,0.0667572113092,0.0125,0.207,0.2195,0.0667572113092,0.0125,0.207,0.2195,0.0667572113092
34040000,99.2652887514,139.756839518,79.019513368,0.7445,0.229,0.499,0.022,0.227,0.249,0.104275539276,0.022,0.227,0.249,0.104275539276,0.022,0.227,0.249,0.104275539276,0.022,0.227,0.249,0.104275539276,0.022,0.227,0.249,0.104275539276,0.022,0.227,0.249,0.104275539276
34040000,100.160780391,141.236293206,79.6230239839,0.7355,0.2495,0.524,0.0145,0.248,0.2625,0.0582209457209,0.0145,0.248,0.2625,0.0582209457209,0.0145,0.248,0.2625,0.0582209457209,0.0145,0.248,0.2625,0.0582209457209,0.0145,0.248,0.2625,0.0582209457209,0.0145,0.248,0.2625,0.0582209457209
34040000,100.167277617,141.41863681,79.5415980206,0.8075,0.199,0.5135,0.03,0.197,0.227,0.155208333333,0.03,0.197,0.227,0.155208333333,0.03,0.197,0.227,0.155208333333,0.03,0.197,0.227,0.155208333333,0.03,0.197,0.227,0.155208333333,0.03,0.197,0.227,0.155208333333
34040000,100.190088563,140.654143139,79.9580612747,0.734,0.201,0.4525,0.0155,0.167,0.1825,0.0880965099715,0.0155,0.167,0.1825,0.0880965099715,0.0155,0.167,0.1825,0.0880965099715,0.0155,0.167,0.1825,0.0880965099715,0.0155,0.167,0.1825,0.0880965099715,0.0155,0.167,0.1825,0.0880965099715
34040000,100.809086124,142.227772695,80.0997428392,0.7475,0.2035,0.5455,0.0185,0.202,0.2205,0.0933377039627,0.0185,0.202,0.2205,0.0933377039627,0.0185,0.202,0.2205,0.0933377039627,0.0185,0.202,0.2205,0.0933377039627,0.0185,0.202,0.2205,0.0933377039627,0.0185,0.202,0.2205,0.0933377039627
34040000,102.107673536,144.060043254,81.1314886768,0.766,0.1845,0.5705,0.019,0.168,0.187,0.119285714286,0.019,0.168,0.187,0.119285714286,0.019,0.168,0.187,0.119285714286,0.019,0.168,0.187,0.119285714286,0.019,0.168,0.187,0.119285714286,0.019,0.168,0.187,0.119285714286
34080000,91.262235257,104.34298858,84.7218585957,0.92,0.344,0.696,0.016,0.336,0.352,0.047619047619,0.016,0.336,0.352,0.047619047619,0.016,0.336,0.352,0.047619047619,0.016,0.336,0.352,0.047619047619,0.016,0.336,0.352,0.047619047619,0.016,0.336,0.352,0.047619047619
34120000,98.6298954708,132.569672172,81.66000712,0.767,0.2045,0.5665,0.0095,0.1975,0.207,0.0483187645688,0.0095,0.1975,0.207,0.0483187645688,0.0095,0.1975,0.207,0.0483187645688,0.009,0.1975,0.2065,0.0459149184149,0.009,0.1975,0.2065,0.0459149184149,0.009,0.1975,0.2065,0.0459149184149
34120000,98.8410620729,131.921789279,82.3006984699,0.773,0.2,0.5685,0.028,0.176,0.204,0.171578947368,0.028,0.176,0.204,0.171578947368,0.012,0.176,0.188,0.0663157894737,0.012,0.176,0.188,0.0663157894737,0.012,0.176,0.188,0.0663157894737,0.012,0.176,0.188,0.0663157894737
34120000,98.9350907992,133.596232001,81.6045201982,0.773,0.204,0.571,0.0175,0.1925,0.21,0.0914140388597,0.0175,0.1925,0.21,0.0914140388597,0.0175,0.1925,0.21,0.0914140388597,0.0175,0.1925,0.21,0.0914140388597,0.0175,0.1925,0.21,0.0914140388597,0.0175,0.1925,0.21,0.0914140388597
34120000,99.1317387826,141.160370457,78.1174229455,0.7665,0.226,0.5625,0.0145,0.225,0.2395,0.0710041407867,0.0145,0.225,0.2395,0.0710041407867,0.0145,0.225,0.2395,0.0710041407867,0.0145,0.225,0.2395,0.0710041407867,0.012,0.225,0.237,0.057417184265,0.012,0.225,0.237,0.057417184265
34120000,100.331356565,140.955270866,80.0193994138,0.765,0.262,0.535,0.0085,0.246,0.2545,0.0361606665954,0.0085,0.246,0.2545,0.0361606665954,0.0085,0.246,0.2545,0.0361606665954,0.0085,0.246,0.2545,0.0361606665954,0.0085,0.246,0.2545,0.0361606665954,0.0085,0.246,0.2545,0.0361606665954
34120000,100.954889008,136.659892995,83.1023870144,0.753,0.206,0.547,0.012,0.2005,0.2125,0.0599562937063,0.012,0.1885,0.2005,0.0654108391608,0.012,0.1885,0.2005,0.0654108391608,0.012,0.188,0.2,0.0655461205461,0.012,0.188,0.2,0.0655461205461,0.012,0.188,0.2,0.0655461205461
34120000,101.031529748,143.239512922,79.9275381618,0.7825,0.2135,0.5575,0.0105,0.193,0.2035,0.0583117084476,0.0105,0.193,0.2035,0.0583117084476,0.0105,0.193,0.2035,0.0583117084476,0.0105,0.193,0.2035,0.0583117084476,0.0105,0.193,0.2035,0.0583117084476,0.0105,0.193,0.2035,0.0583117084476
34120000,101.828790655,144.138245056,80.6740634541,0.769,0.281,0.5235,0.03,0.276,0.306,0.101697858777,0.03,0.276,0.306,0.101697858777,0.014,0.276,0.29,0.0540788111583,0.014,0.276,0.29,0.0540788111583,0.014,0.276,0.29,0.0540788111583,0.014,0.276,0.29,0.0540788111583
34120000,101.998742732,137.778502276,84.1088629598,0.7805,0.2095,0.5745,0.024,0.204,0.228,0.116161858974,0.024,0.204,0.228,0.116161858974,0.024,0.204,0.228,0.116161858974,0.024,0.204,0.228,0.116161858974,0.024,0.204,0.228,0.116161858974,0.024,0.204,0.228,0.116161858974
34120000,102.278288051,133.910495789,86.4621841812,0.7535,0.2,0.5535,0.0145,0.1875,0.202,0.0757561188811,0.0145,0.1875,0.202,0.0757561188811,0.0145,0.1875,0.202,0.0757561188811,0.0145,0.1875,0.202,0.0757561188811,0.0145,0.1875,0.202,0.0757561188811,0.0145,0.1875,0.202,0.0757561188811
34120000,103.02341855,145.822070252,81.6240926996,0.7445,0.1885,0.466,0.022,0.184,0.206,0.129223840852,0.022,0.184,0.206,0.129223840852,0.022,0.184,0.206,0.129223840852,0.022,0.184,0.206,0.129223840852,0.022,0.184,0.206,0.129223840852,0.022,0.184,0.206,0.129223840852
34120000,103.179691397,146.037719821,81.7506771853,0.771,0.236,0.5505,0.0155,0.2255,0.241,0.0732323232323,0.0155,0.2255,0.241,0.0732323232323,0.0155,0.2255,0.241,0.0732323232323,0.0155,0.2255,0.241,0.0732323232323,0.0155,0.2255,0.241,0.0732323232323,0.0155,0.2255,0.241,0.0732323232323
34120000,103.256159549,146.160820067,81.8038292908,0.746,0.254,0.5005,0.009,0.242,0.251,0.0431818181818,0.009,0.242,0.251,0.0431818181818,0.009,0.242,0.251,0.0431818181818,0.009,0.242,0.251,0.0431818181818,0.009,0.242,0.251,0.0431818181818,0.009,0.242,0.251,0.0431818181818
34120000,103.2565442,146.754309102,81.5076617488,0.772,0.176,0.596,0.012,0.172,0.184,0.0703463203463,0.012,0.172,0.184,0.0703463203463,0.012,0.172,0.184,0.0703463203463,0.012,0.172,0.184,0.0703463203463,0.012,0.172,0.184,0.0703463203463,0.012,0.172,0.184,0.0703463203463
34120000,103.28385752,135.842778239,87.0043971597,0.7455,0.202,0.5465,0.029,0.191,0.22,0.150681818182,0.029,0.191,0.22,0.150681818182,0.029,0.191,0.22,0.150681818182,0.029,0.191,0.22,0.150681818182,0.029,0.191,0.22,0.150681818182,0.029,0.191,0.22,0.150681818182
34120000,104.151039598,146.707634768,82.8727420135,0.752,0.191,0.567,0.017,0.1785,0.1955,0.0962697628458,0.017,0.1785,0.1955,0.0962697628458,0.017,0.1785,0.1955,0.0962697628458,0.017,0.1785,0.1955,0.0962697628458,0.017,0.1785,0.1955,0.0962697628458,0.017,0.1785,0.1955,0.0962697628458
34120000,105.395302336,140.587080152,87.7994134276,0.7615,0.204,0.5595,0.013,0.197,0.21,0.0656932831661,0.013,0.197,0.21,0.0656932831661,0.013,0.197,0.21,0.0656932831661,0.013,0.197,0.21,0.0656932831661,0.013,0.197,0.21,0.0656932831661,0.013,0.197,0.21,0.0656932831661
34120000,105.65703713,148.530734699,84.220188345,0.7705,0.256,0.5765,0.019,0.2455,0.2645,0.0891013198758,0.019,0.2455,0.2645,0.0891013198758,0.019,0.2455,0.2645,0.0891013198758,0.019,0.2455,0.2645,0.0891013198758,0.019,0.2455,0.2645,0.0891013198758,0.019,0.2455,0.2645,0.0891013198758
34120000,105.896056056,139.887717753,88.9002252082,0.765,0.202,0.564,0.016,0.1985,0.2145,0.0810340022297,0.016,0.1985,0.2145,0.0810340022297,0.016,0.1985,0.2145,0.0810340022297,0.016,0.1985,0.2145,0.0810340022297,0.016,0.1985,0.2145,0.0810340022297,0.016,0.1985,0.2145,0.0810340022297
34120000,106.066659259,140.324765991,88.9376058933,0.755,0.206,0.554,0.018,0.197,0.215,0.0925320512821,0.018,0.197,0.215,0.0925320512821,0.018,0.197,0.215,0.0925320512821,0.018,0.197,0.215,0.0925320512821,0.018,0.197,0.215,0.0925320512821,0.018,0.197,0.215,0.0925320512821
34120000,106.67462374,139.567882449,90.2279943857,0.738,0.198,0.5385,0.0165,0.1865,0.203,0.0907138694639,0.0165,0.1865,0.203,0.0907138694639,0.0165,0.1865,0.203,0.0907138694639,0.0165,0.1865,0.203,0.0907138694639,0.0165,0.1865,0.203,0.0907138694639,0.0165,0.1865,0.203,0.0907138694639
34120000,106.72365634,142.024302525,89.0733332474,0.7445,0.2055,0.5475,0.018,0.1835,0.2015,0.0953159340659,0.018,0.1835,0.2015,0.0953159340659,0.018,0.1835,0.2015,0.0953159340659,0.018,0.1835,0.2015,0.0953159340659,0.018,0.1825,0.2005,0.0957005494505,0.018,0.1825,0.2005,0.0957005494505
34120000,107.321052069,141.718161286,90.1224974608,0.7435,0.198,0.5455,0.0195,0.19,0.2095,0.102644927536,0.0195,0.19,0.2095,0.102644927536,0.0195,0.19,0.2095,0.102644927536,0.0195,0.19,0.2095,0.102644927536,0.0195,0.19,0.2095,0.102644927536,0.019,0.19,0.209,0.100144927536
34120000,107.816894937,143.832103506,89.8092906525,0.7375,0.2015,0.533,0.015,0.1885,0.2035,0.0800570353559,0.015,0.1885,0.2035,0.0800570353559,0.015,0.1885,0.2035,0.0800570353559,0.015,0.1885,0.2035,0.0800570353559,0.015,0.1885,0.2035,0.0800570353559,0.015,0.1885,0.2035,0.0800570353559
34120000,109.645373874,144.932296973,92.0019123243,0.7495,0.2045,0.554,0.018,0.2025,0.2205,0.088421474359,0.018,0.2025,0.2205,0.088421474359,0.018,0.2025,0.2205,0.088421474359,0.018,0.2025,0.2205,0.088421474359,0.018,0.2015,0.2195,0.0891008221851,0.018,0.2015,0.2195,0.0891008221851
34160000,92.5829398712,125.189153004,76.2798333047,0.7255,0.2005,0.5255,0.0085,0.196,0.2045,0.0433333333333,0.0085,0.196,0.2045,0.0433333333333,0.0085,0.196,0.2045,0.0433333333333,0.0085,0.196,0.2045,0.0433333333333,0.0085,0.196,0.2045,0.0433333333333,0.0085,0.196,0.2045,0.0433333333333
34160000,94.8051738067,124.031693755,80.1919138324,0.7095,0.2025,0.512,0.0155,0.1955,0.211,0.0783030626781,0.0155,0.1955,0.211,0.0783030626781,0.0155,0.1955,0.211,0.0783030626781,0.0155,0.1955,0.211,0.0783030626781,0.0155,0.1955,0.211,0.0783030626781,0.0155,0.1955,0.211,0.0783030626781
34160000,95.2236814373,139.706564424,72.9822399439,0.745,0.2025,0.5495,0.0275,0.2,0.2275,0.135240285077,0.0275,0.2,0.2275,0.135240285077,0.0275,0.2,0.2275,0.135240285077,0.0275,0.2,0.2275,0.135240285077,0.0275,0.1995,0.227,0.135537904125,0.0275,0.1995,0.227,0.135537904125
34160000,97.0816252357,141.251425297,74.9967252049,0.7085,0.205,0.514,0.022,0.2,0.222,0.107824693423,0.022,0.2,0.222,0.107824693423,0.022,0.2,0.222,0.107824693423,0.022,0.2,0.222,0.107824693423,0.022,0.2,0.222,0.107824693423,0.022,0.2,0.222,0.107824693423
34160000,97.3362000161,140.083576051,75.9625119986,0.7065,0.2175,0.4995,0.012,0.216,0.228,0.0587767133382,0.012,0.216,0.228,0.0587767133382,0.012,0.216,0.228,0.0587767133382,0.012,0.216,0.228,0.0587767133382,0.012,0.216,0.228,0.0587767133382,0.012,0.216,0.228,0.0587767133382
34160000,97.8797702877,142.110880489,75.764215187,0.6955,0.1975,0.4865,0.0195,0.1855,0.205,0.105125399962,0.0195,0.1855,0.205,0.105125399962,0.0195,0.1855,0.205,0.105125399962,0.0195,0.1855,0.205,0.105125399962,0.0195,0.1855,0.205,0.105125399962,0.0195,0.1855,0.205,0.105125399962
34160000,98.4870112191,140.334641991,77.5631958333,0.676,0.201,0.4475,0.014,0.1765,0.1905,0.0782219908714,0.014,0.1765,0.1905,0.0782219908714,0.014,0.1765,0.1905,0.0782219908714,0.014,0.1765,0.1905,0.0782219908714,0.014,0.1765,0.1905,0.0782219908714,0.014,0.1765,0.1905,0.0782219908714
34160000,99.5287732682,139.549732436,79.5182936842,0.7735,0.2135,0.554,0.0155,0.2095,0.225,0.0743099261849,0.0155,0.2095,0.225,0.0743099261849,0.0155,0.2095,0.225,0.0743099261849,0.0155,0.2095,0.225,0.0743099261849,0.0155,0.2095,0.225,0.0743099261849,0.0155,0.2095,0.225,0.0743099261849
34160000,101.621522295,144.192882355,80.3358422658,0.7995,0.2635,0.608,0.0175,0.2555,0.273,0.0765987202564,0.0175,0.2555,0.273,0.0765987202564,0.0175,0.2555,0.273,0.0765987202564,0.0175,0.2555,0.273,0.0765987202564,0.0175,0.2555,0.273,0.0765987202564,0.0175,0.2555,0.273,0.0765987202564
34160000,101.689748917,145.575910881,79.7466679342,0.7155,0.1985,0.41,0.014,0.1955,0.2095,0.0710576923077,0.014,0.1955,0.2095,0.0710576923077,0.014,0.1955,0.2095,0.0710576923077,0.014,0.1955,0.2095,0.0710576923077,0.014,0.1955,0.2095,0.0710576923077,0.014,0.1955,0.2095,0.0710576923077
34160000,105.420984398,149.805843079,83.2285550578,0.68,0.1895,0.482,0.023,0.185,0.208,0.124565217391,0.023,0.185,0.208,0.124565217391,0.023,0.185,0.208,0.124565217391,0.023,0.185,0.208,0.124565217391,0.023,0.185,0.208,0.124565217391,0.023,0.185,0.208,0.124565217391
34160000,105.760347984,150.044858235,83.6180928584,0.6855,0.221,0.4555,0.01,0.2075,0.2175,0.0474391088302,0.01,0.2075,0.2175,0.0474391088302,0.01,0.2075,0.2175,0.0474391088302,0.01,0.2075,0.2175,0.0474391088302,0.01,0.2075,0.2175,0.0474391088302,0.01,0.2075,0.2175,0.0474391088302
34160000,107.932477245,149.345279329,87.2260762039,0.748,0.2555,0.5205,0.01,0.2525,0.2625,0.0410527993249,0.01,0.2525,0.2625,0.0410527993249,0.01,0.2525,0.2625,0.0410527993249,0.01,0.2525,0.2625,0.0410527993249,0.01,0.2525,0.2625,0.0410527993249,0.01,0.2525,0.2625,0.0410527993249
34200000,92.334294386,136.360738836,70.3210721611,0.818,0.21,0.605,0.0255,0.2015,0.227,0.124111622074,0.0255,0.2015,0.227,0.124111622074,0.0255,0.2015,0.227,0.124111622074,0.0255,0.2015,0.227,0.124111622074,0.0255,0.2015,0.227,0.124111622074,0.0255,0.2015,0.227,0.124111622074
34200000,92.5866257789,136.827322764,70.4662772864,0.8465,0.2205,0.6285,0.01,0.2165,0.2265,0.0462046334891,0.01,0.2165,0.2265,0.0462046334891,0.01,0.2165,0.2265,0.0462046334891,0.01,0.2165,0.2265,0.0462046334891,0.01,0.2165,0.2265,0.0462046334891,0.01,0.2165,0.2265,0.0462046334891
34200000,93.7169138427,137.894118069,71.6283117298,0.801,0.325,0.572,0.0085,0.309,0.3175,0.0303253309871,0.0085,0.309,0.3175,0.0303253309871,0.0085,0.309,0.3175,0.0303253309871,0.0085,0.309,0.3175,0.0303253309871,0.0085,0.309,0.3175,0.0303253309871,0.0085,0.309,0.3175,0.0303253309871
34200000,93.9450665744,137.446754556,72.1942225838,0.8235,0.2225,0.6045,0.0125,0.222,0.2345,0.0562169312169,0.0125,0.222,0.2345,0.0562169312169,0.0125,0.222,0.2345,0.0562169312169,0.0125,0.222,0.2345,0.0562169312169,0.0125,0.222,0.2345,0.0562169312169,0.0125,0.222,0.2345,0.0562169312169
34200000,94.9787075826,140.449946798,72.2430879748,0.8175,0.225,0.5935,0.0155,0.2235,0.239,0.0695061866428,0.0155,0.2235,0.239,0.0695061866428,0.0155,0.2235,0.239,0.0695061866428,0.0155,0.2235,0.239,0.0695061866428,0.0155,0.2235,0.239,0.0695061866428,0.0155,0.2235,0.239,0.0695061866428
34200000,95.4794437081,142.255574951,72.0913780865,0.836,0.213,0.622,0.0085,0.21,0.2185,0.0405600071225,0.0085,0.21,0.2185,0.0405600071225,0.0085,0.21,0.2185,0.0405600071225,0.0085,0.21,0.2185,0.0405600071225,0.0085,0.21,0.2185,0.0405600071225,0.0085,0.21,0.2185,0.0405600071225
34200000,95.7774666766,139.40002397,73.96618803,0.7625,0.25,0.5435,0.0245,0.2455,0.27,0.120551386507,0.0245,0.2455,0.27,0.120551386507,0.0245,0.2455,0.27,0.120551386507,0.0245,0.2455,0.27,0.120551386507,0.0225,0.2455,0.268,0.112218053173,0.0225,0.2455,0.268,0.112218053173
34200000,96.1449662071,141.607982142,73.4134582397,0.806,0.2215,0.5805,0.0185,0.218,0.2365,0.0862662800163,0.0185,0.218,0.2365,0.0862662800163,0.0185,0.218,0.2365,0.0862662800163,0.0185,0.218,0.2365,0.0862662800163,0.0185,0.218,0.2365,0.0862662800163,0.0185,0.218,0.2365,0.0862662800163
34200000,96.223970951,142.797045242,72.9374338052,0.8345,0.41,0.6065,0.0115,0.4025,0.414,0.040569777725,0.0115,0.4025,0.414,0.040569777725,0.0115,0.4025,0.414,0.040569777725,0.0115,0.4025,0.414,0.040569777725,0.0115,0.4025,0.414,0.040569777725,0.0115,0.4025,0.414,0.040569777725
34200000,96.6023085175,141.481127065,74.1628992437,0.792,0.215,0.567,0.017,0.201,0.218,0.0826495726496,0.017,0.201,0.218,0.0826495726496,0.017,0.201,0.218,0.0826495726496,0.017,0.201,0.218,0.0826495726496,0.017,0.201,0.218,0.0826495726496,0.017,0.201,0.218,0.0826495726496
34200000,96.8375333947,142.325337518,74.0936313331,0.796,0.2185,0.5825,0.01,0.212,0.222,0.0469576719577,0.01,0.212,0.222,0.0469576719577,0.01,0.212,0.222,0.0469576719577,0.01,0.212,0.222,0.0469576719577,0.01,0.212,0.222,0.0469576719577,0.01,0.212,0.222,0.0469576719577
34200000,97.0505071839,140.6936579,75.2289318259,0.7815,0.217,0.56,0.0095,0.2015,0.211,0.0466415229885,0.0095,0.2015,0.211,0.0466415229885,0.0095,0.2015,0.211,0.0466415229885,0.0095,0.2015,0.211,0.0466415229885,0.0095,0.2015,0.211,0.0466415229885,0.0095,0.2015,0.211,0.0466415229885
34200000,97.2405417014,142.383659486,74.6689828089,0.728,0.1625,0.5385,0.0125,0.148,0.1605,0.0869580138058,0.0125,0.148,0.1605,0.0869580138058,0.0125,0.148,0.1605,0.0869580138058,0.0125,0.148,0.1605,0.0869580138058,0.0125,0.148,0.1605,0.0869580138058,0.0125,0.148,0.1605,0.0869580138058
34200000,97.4821172009,142.994054316,74.7261486435,0.7995,0.2195,0.5835,0.009,0.217,0.226,0.0415211640212,0.009,0.217,0.226,0.0415211640212,0.009,0.217,0.226,0.0415211640212,0.009,0.217,0.226,0.0415211640212,0.009,0.217,0.226,0.0415211640212,0.009,0.217,0.226,0.0415211640212
34200000,98.0441117159,144.595857888,74.7682386299,0.8035,0.217,0.581,0.015,0.2115,0.2265,0.0714173789174,0.015,0.2115,0.2265,0.0714173789174,0.015,0.2115,0.2265,0.0714173789174,0.015,0.2115,0.2265,0.0714173789174,0.015,0.2115,0.2265,0.0714173789174,0.015,0.2115,0.2265,0.0714173789174
34200000,98.3292167207,144.251871694,75.3678892339,0.789,0.217,0.5755,0.01,0.2015,0.2115,0.0494271319639,0.01,0.2015,0.2115,0.0494271319639,0.01,0.2015,0.2115,0.0494271319639,0.01,0.2015,0.2115,0.0494271319639,0.01,0.2015,0.2115,0.0494271319639,0.01,0.2015,0.2115,0.0494271319639
34200000,98.7423674338,144.189053537,76.019024382,0.784,0.217,0.5695,0.02,0.2095,0.2295,0.096026105537,0.02,0.2095,0.2295,0.096026105537,0.02,0.2095,0.2295,0.096026105537,0.02,0.2095,0.2295,0.096026105537,0.02,0.2095,0.2295,0.096026105537,0.02,0.2095,0.2295,0.096026105537
34200000,99.1596945663,145.740978881,75.8690524088,0.7915,0.2165,0.574,0.011,0.211,0.222,0.051917989418,0.011,0.211,0.222,0.051917989418,0.011,0.211,0.222,0.051917989418,0.011,0.211,0.222,0.051917989418,0.011,0.211,0.222,0.051917989418,0.011,0.211,0.222,0.051917989418
34200000,99.1768165041,147.071982995,75.2292332588,0.8135,0.22,0.591,0.0115,0.2085,0.22,0.0557701210826,0.0115,0.2085,0.22,0.0557701210826,0.0115,0.2085,0.22,0.0557701210826,0.0115,0.2085,0.22,0.0557701210826,0.0115,0.2085,0.22,0.0557701210826,0.0115,0.2085,0.22,0.0557701210826
34200000,99.1984502207,144.913438439,76.3409561113,0.7685,0.214,0.545,0.0235,0.2085,0.232,0.111790986791,0.0235,0.2085,0.232,0.111790986791,0.0235,0.2085,0.232,0.111790986791,0.0215,0.2085,0.23,0.102175602176,0.0215,0.2085,0.23,0.102175602176,0.0215,0.2085,0.23,0.102175602176
34200000,99.2124793566,147.069034608,75.2842017307,0.7945,0.2165,0.5455,0.013,0.213,0.226,0.0604173026048,0.013,0.213,0.226,0.0604173026048,0.013,0.213,0.226,0.0604173026048,0.013,0.213,0.226,0.0604173026048,0.013,0.213,0.226,0.0604173026048,0.013,0.213,0.226,0.0604173026048
34200000,99.4774542898,146.918639261,75.7568618044,0.8225,0.221,0.595,0.013,0.22,0.233,0.0588306369556,0.013,0.22,0.233,0.0588306369556,0.013,0.22,0.233,0.0588306369556,0.013,0.22,0.233,0.0588306369556,0.013,0.22,0.233,0.0588306369556,0.013,0.22,0.233,0.0588306369556
34200000,100.018042936,140.071560314,79.9912842467,0.707,0.221,0.508,0.0125,0.219,0.2315,0.0574098634443,0.0125,0.219,0.2315,0.0574098634443,0.0125,0.219,0.2315,0.0574098634443,0.0125,0.219,0.2315,0.0574098634443,0.0125,0.219,0.2315,0.0574098634443,0.0125,0.219,0.2315,0.0574098634443
34200000,100.512785293,146.593316154,77.4725198633,0.788,0.2185,0.571,0.0205,0.2145,0.235,0.0947501596424,0.0205,0.2145,0.235,0.0947501596424,0.0205,0.2145,0.235,0.0947501596424,0.0205,0.2145,0.235,0.0947501596424,0.0205,0.2145,0.235,0.0947501596424,0.0205,0.2145,0.235,0.0947501596424
34200000,100.691998148,147.784755968,77.1456192378,0.773,0.2235,0.5535,0.025,0.219,0.244,0.118556832695,0.025,0.219,0.244,0.118556832695,0.025,0.219,0.244,0.118556832695,0.025,0.218,0.243,0.11874201788,0.024,0.218,0.242,0.11411238825,0.024,0.218,0.242,0.11411238825
34200000,101.132941266,147.57691627,77.9109537642,0.824,0.272,0.596,0.0135,0.266,0.2795,0.0555619149369,0.0135,0.266,0.2795,0.0555619149369,0.0135,0.266,0.2795,0.0555619149369,0.0135,0.266,0.2795,0.0555619149369,0.0135,0.266,0.2795,0.0555619149369,0.0135,0.266,0.2795,0.0555619149369
34200000,101.189421516,147.531841466,78.0182115412,0.765,0.2185,0.5525,0.0225,0.2175,0.24,0.108885327635,0.0225,0.2175,0.24,0.108885327635,0.0225,0.2175,0.24,0.108885327635,0.0225,0.2175,0.24,0.108885327635,0.0225,0.2175,0.24,0.108885327635,0.0225,0.2175,0.24,0.108885327635
34200000,101.382105604,148.481285001,77.8325159051,0.815,0.2225,0.6,0.0165,0.2175,0.234,0.0771403828001,0.0165,0.2175,0.234,0.0771403828001,0.0165,0.2175,0.234,0.0771403828001,0.0165,0.2175,0.234,0.0771403828001,0.0165,0.2175,0.234,0.0771403828001,0.0165,0.2175,0.234,0.0771403828001
34200000,101.560625243,148.573482202,78.054196763,0.791,0.216,0.579,0.009,0.206,0.215,0.0436473429952,0.009,0.206,0.215,0.0436473429952,0.009,0.206,0.215,0.0436473429952,0.009,0.206,0.215,0.0436473429952,0.009,0.205,0.214,0.0438556763285,0.009,0.205,0.214,0.0438556763285
34200000,101.626756597,149.82921301,77.5255283909,0.76,0.25,0.508,0.018,0.242,0.26,0.0821632071632,0.018,0.242,0.26,0.0821632071632,0.018,0.242,0.26,0.0821632071632,0.018,0.242,0.26,0.0821632071632,0.018,0.242,0.26,0.0821632071632,0.018,0.242,0.26,0.0821632071632
34200000,101.666977643,147.308859475,78.8460367268,0.795,0.213,0.578,0.0175,0.211,0.2285,0.0835360616395,0.0175,0.211,0.2285,0.0835360616395,0.0175,0.211,0.2285,0.0835360616395,0.0175,0.211,0.2285,0.0835360616395,0.0175,0.211,0.2285,0.0835360616395,0.0175,0.211,0.2285,0.0835360616395
34200000,101.740968832,148.830568033,78.1961692312,0.7825,0.218,0.5615,0.0275,0.212,0.2395,0.128393365893,0.0275,0.212,0.2395,0.128393365893,0.0275,0.212,0.2395,0.128393365893,0.0275,0.212,0.2395,0.128393365893,0.0275,0.212,0.2395,0.128393365893,0.0275,0.212,0.2395,0.128393365893
34200000,101.776673157,149.169788223,78.0801156237,0.8045,0.2205,0.5865,0.022,0.213,0.235,0.102473336848,0.022,0.213,0.235,0.102473336848,0.022,0.213,0.235,0.102473336848,0.022,0.213,0.235,0.102473336848,0.022,0.213,0.235,0.102473336848,0.022,0.213,0.235,0.102473336848
34200000,101.903459983,148.270693001,78.7198434745,0.808,0.2205,0.584,0.0145,0.2155,0.23,0.0680936241281,0.0145,0.2135,0.228,0.0689677500022,0.0145,0.2135,0.228,0.0689677500022,0.0135,0.2135,0.227,0.0643381203726,0.0135,0.2135,0.227,0.0643381203726,0.0135,0.2135,0.227,0.0643381203726
34200000,102.294175469,145.999353112,80.4415866482,0.7445,0.2165,0.472,0.009,0.206,0.215,0.0437271062271,0.009,0.206,0.215,0.0437271062271,0.009,0.206,0.215,0.0437271062271,0.009,0.206,0.215,0.0437271062271,0.009,0.206,0.215,0.0437271062271,0.009,0.206,0.215,0.0437271062271
34200000,102.326875186,142.163248875,82.4086883413,0.695,0.199,0.491,0.0115,0.183,0.1945,0.0617213693587,0.0115,0.183,0.1945,0.0617213693587,0.0115,0.183,0.1945,0.0617213693587,0.0115,0.183,0.1945,0.0617213693587,0.0115,0.183,0.1945,0.0617213693587,0.0115,0.183,0.1945,0.0617213693587
34200000,102.335913278,149.359306958,78.8242164376,0.7955,0.2125,0.583,0.0095,0.2085,0.218,0.0461102207977,0.0095,0.2085,0.218,0.0461102207977,0.0095,0.2085,0.218,0.0461102207977,0.0095,0.2085,0.218,0.0461102207977,0.0095,0.2085,0.218,0.0461102207977,0.0095,0.2085,0.218,0.0461102207977
34200000,102.506218572,149.301542333,79.1085566918,0.801,0.221,0.5815,0.017,0.221,0.238,0.077876984127,0.017,0.221,0.238,0.077876984127,0.017,0.221,0.238,0.077876984127,0.017,0.221,0.238,0.077876984127,0.017,0.221,0.238,0.077876984127,0.017,0.221,0.238,0.077876984127
34200000,102.659653317,149.814526484,79.0822167333,0.7375,0.194,0.5265,0.0165,0.1915,0.208,0.0863903985507,0.0165,0.1915,0.208,0.0863903985507,0.0165,0.1915,0.208,0.0863903985507,0.0165,0.1915,0.208,0.0863903985507,0.0165,0.1915,0.208,0.0863903985507,0.0165,0.1915,0.208,0.0863903985507
34200000,103.180675386,149.257687102,80.1421695284,0.8025,0.215,0.5865,0.0125,0.207,0.2195,0.0625027981278,0.0125,0.207,0.2195,0.0625027981278,0.0125,0.207,0.2195,0.0625027981278,0.0125,0.207,0.2195,0.0625027981278,0.0125,0.207,0.2195,0.0625027981278,0.0125,0.207,0.2195,0.0625027981278
34200000,103.275421571,149.570780002,80.1277423554,0.7905,0.2215,0.574,0.017,0.2155,0.2325,0.0792179232804,0.017,0.2155,0.2325,0.0792179232804,0.017,0.2155,0.2325,0.0792179232804,0.017,0.2155,0.2325,0.0792179232804,0.017,0.2155,0.2325,0.0792179232804,0.017,0.2155,0.2325,0.0792179232804
34200000,103.354137714,149.555045689,80.2536837264,0.7625,0.196,0.523,0.028,0.1725,0.2005,0.178661370571,0.028,0.1725,0.2005,0.178661370571,0.028,0.1725,0.2005,0.178661370571,0.028,0.1725,0.2005,0.178661370571,0.028,0.1725,0.2005,0.178661370571,0.028,0.1725,0.2005,0.178661370571
34200000,103.401481818,149.541102768,80.3316713433,0.751,0.217,0.536,0.0135,0.194,0.2075,0.0673606023606,0.0135,0.194,0.2075,0.0673606023606,0.0135,0.194,0.2075,0.0673606023606,0.0135,0.194,0.2075,0.0673606023606,0.0135,0.194,0.2075,0.0673606023606,0.0135,0.194,0.2075,0.0673606023606
34200000,104.254526869,149.441092641,81.6612439826,0.7865,0.209,0.574,0.017,0.202,0.219,0.0833012820513,0.017,0.202,0.219,0.0833012820513,0.017,0.202,0.219,0.0833012820513,0.017,0.202,0.219,0.0833012820513,0.017,0.202,0.219,0.0833012820513,0.017,0.202,0.219,0.0833012820513
34200000,104.770496029,149.189784222,82.5608519325,0.777,0.2175,0.5605,0.0125,0.2135,0.226,0.0585444647945,0.0125,0.2135,0.226,0.0585444647945,0.0125,0.2095,0.222,0.0592567155067,0.0125,0.2095,0.222,0.0592567155067,0.0125,0.2095,0.222,0.0592567155067,0.0125,0.2045,0.217,0.0604265873016
34200000,104.950721571,149.033920135,82.9091222889,0.7635,0.2045,0.5425,0.0225,0.2035,0.226,0.109876628002,0.0225,0.2035,0.226,0.109876628002,0.0225,0.2035,0.226,0.109876628002,0.0225,0.2035,0.226,0.109876628002,0.0225,0.2035,0.226,0.109876628002,0.0225,0.2035,0.226,0.109876628002
34200000,105.033883405,149.43714507,82.8322525724,0.7635,0.2175,0.5465,0.01,0.21,0.22,0.0486475330225,0.01,0.21,0.22,0.0486475330225,0.01,0.21,0.22,0.0486475330225,0.01,0.21,0.22,0.0486475330225,0.01,0.21,0.22,0.0486475330225,0.01,0.21,0.22,0.0486475330225
34200000,105.116012593,149.288243089,83.0298973446,0.7475,0.22,0.5335,0.0135,0.201,0.2145,0.0669078606579,0.0135,0.201,0.2145,0.0669078606579,0.0135,0.201,0.2145,0.0669078606579,0.0135,0.201,0.2145,0.0669078606579,0.0135,0.201,0.2145,0.0669078606579,0.0135,0.201,0.2145,0.0669078606579
34200000,105.181810009,149.329238879,83.1080955734,0.768,0.2095,0.5515,0.0155,0.198,0.2135,0.0809904542921,0.0155,0.196,0.2115,0.0829667388771,0.0155,0.196,0.2115,0.0829667388771,0.0155,0.196,0.2115,0.0829667388771,0.0155,0.196,0.2115,0.0829667388771,0.0155,0.196,0.2115,0.0829667388771
34200000,105.243704353,149.295115543,83.217998758,0.775,0.198,0.569,0.025,0.1955,0.2205,0.130418060201,0.025,0.1955,0.2205,0.130418060201,0.025,0.1955,0.2205,0.130418060201,0.025,0.1955,0.2205,0.130418060201,0.025,0.1955,0.2205,0.130418060201,0.025,0.1955,0.2205,0.130418060201
34200000,105.732090248,149.071895541,84.0621876013,0.741,0.221,0.5305,0.023,0.208,0.231,0.109825344612,0.023,0.208,0.231,0.109825344612,0.023,0.208,0.231,0.109825344612,0.023,0.208,0.231,0.109825344612,0.023,0.208,0.231,0.109825344612,0.023,0.208,0.231,0.109825344612
34200000,105.89300304,149.417581498,84.1307138116,0.7695,0.2195,0.5435,0.012,0.206,0.218,0.06187504625,0.012,0.206,0.218,0.06187504625,0.012,0.206,0.218,0.06187504625,0.012,0.206,0.218,0.06187504625,0.012,0.206,0.218,0.06187504625,0.012,0.204,0.216,0.0634984228734
34200000,107.828755949,149.627938732,86.9291645577,0.7525,0.2105,0.551,0.0125,0.2075,0.22,0.0596652421652,0.0125,0.2075,0.22,0.0596652421652,0.0125,0.2075,0.22,0.0596652421652,0.0125,0.2075,0.22,0.0596652421652,0.0125,0.2075,0.22,0.0596652421652,0.0125,0.2075,0.22,0.0596652421652
34200000,108.382712488,148.922974872,88.1125812959,0.732,0.213,0.5225,0.016,0.2035,0.2195,0.0782234432234,0.016,0.2035,0.2195,0.0782234432234,0.016,0.2035,0.2195,0.0782234432234,0.016,0.2035,0.2195,0.0782234432234,0.016,0.2035,0.2195,0.0782234432234,0.016,0.2035,0.2195,0.0782234432234
34240000,98.3279202691,141.911919833,76.5359204871,0.6155,0.271,0.434,0.0245,0.2625,0.287,0.118261788983,0.0245,0.2625,0.287,0.118261788983,0.0245,0.2625,0.287,0.118261788983,0.0245,0.2625,0.287,0.118261788983,0.0245,0.2625,0.287,0.118261788983,0.0245,0.2625,0.287,0.118261788983
34240000,100.397337134,147.769989989,76.711010707,0.728,0.2065,0.5225,0.016,0.2015,0.2175,0.0798237179487,0.016,0.2015,0.2175,0.0798237179487,0.016,0.2015,0.2175,0.0798237179487,0.016,0.2015,0.2175,0.0798237179487,0.016,0.2015,0.2175,0.0798237179487,0.016,0.2015,0.2175,0.0798237179487
34240000,101.715886283,148.446395007,78.350631921,0.738,0.2,0.524,0.024,0.178,0.202,0.141835016835,0.024,0.178,0.202,0.141835016835,0.024,0.178,0.202,0.141835016835,0.024,0.178,0.202,0.141835016835,0.024,0.178,0.202,0.141835016835,0.024,0.178,0.202,0.141835016835
34240000,101.795752199,149.489802287,77.948727155,0.72,0.208,0.5125,0.0115,0.2025,0.214,0.0569230769231,0.0115,0.2025,0.214,0.0569230769231,0.0115,0.2025,0.214,0.0569230769231,0.0115,0.2025,0.214,0.0569230769231,0.0115,0.2025,0.214,0.0569230769231,0.0115,0.2025,0.214,0.0569230769231
34240000,102.787282252,149.692007219,79.334919769,0.709,0.203,0.508,0.0155,0.1845,0.2,0.0850378787879,0.0155,0.1845,0.2,0.0850378787879,0.0155,0.1845,0.2,0.0850378787879,0.0155,0.1845,0.2,0.0850378787879,0.0155,0.1845,0.2,0.0850378787879,0.0155,0.1845,0.2,0.0850378787879
34240000,102.983154443,148.816761985,80.0663506721,0.6795,0.1855,0.484,0.0185,0.1815,0.2,0.102921195652,0.0185,0.1815,0.2,0.102921195652,0.0185,0.1815,0.2,0.102921195652,0.0185,0.1815,0.2,0.102921195652,0.0185,0.1815,0.2,0.102921195652,0.0185,0.1815,0.2,0.102921195652
34240000,103.849091806,149.688096876,80.9295892717,0.686,0.199,0.4865,0.0175,0.1955,0.213,0.0890540890269,0.0175,0.1955,0.213,0.0890540890269,0.0175,0.1955,0.213,0.0890540890269,0.0175,0.1955,0.213,0.0890540890269,0.0175,0.1955,0.213,0.0890540890269,0.0175,0.1955,0.213,0.0890540890269
34240000,104.244312536,149.119286091,81.8068257582,0.6765,0.2455,0.4755,0.0215,0.2305,0.252,0.110635013629,0.0215,0.2305,0.252,0.110635013629,0.0215,0.2305,0.252,0.110635013629,0.0215,0.2305,0.252,0.110635013629,0.0215,0.2305,0.252,0.110635013629,0.0215,0.2305,0.252,0.110635013629
34240000,104.56797532,149.699937472,82.0019942441,0.676,0.191,0.4875,0.0335,0.1785,0.212,0.196866765481,0.0335,0.1785,0.212,0.196866765481,0.0335,0.1785,0.212,0.196866765481,0.0335,0.1785,0.212,0.196866765481,0.0335,0.1785,0.212,0.196866765481,0.0335,0.1785,0.212,0.196866765481
34240000,104.83629199,149.50050545,82.5041852593,0.708,0.2055,0.441,0.01,0.203,0.213,0.0498829431438,0.01,0.203,0.213,0.0498829431438,0.01,0.203,0.213,0.0498829431438,0.01,0.203,0.213,0.0498829431438,0.01,0.203,0.213,0.0498829431438,0.01,0.203,0.213,0.0498829431438
34240000,105.202246307,149.159838451,83.2234502346,0.7005,0.3685,0.4365,0.0545,0.357,0.4115,0.143621794872,0.0545,0.357,0.4115,0.143621794872,0.0545,0.357,0.4115,0.143621794872,0.0545,0.357,0.4115,0.143621794872,0.0545,0.357,0.4115,0.143621794872,0.0105,0.357,0.3675,0.0378525641026
34240000,105.935213307,149.784072943,84.0107834886,0.691,0.1955,0.487,0.0145,0.1945,0.209,0.0752498543124,0.0145,0.1945,0.209,0.0752498543124,0.0145,0.1945,0.209,0.0752498543124,0.0145,0.1945,0.209,0.0752498543124,0.0145,0.1945,0.209,0.0752498543124,0.0145,0.1945,0.209,0.0752498543124
34240000,106.351826661,149.45824191,84.7986190367,0.662,0.178,0.46,0.0105,0.167,0.1775,0.0736858974359,0.0105,0.167,0.1775,0.0736858974359,0.0105,0.167,0.1775,0.0736858974359,0.0105,0.167,0.1775,0.0736858974359,0.0105,0.167,0.1775,0.0736858974359,0.0105,0.167,0.1775,0.0736858974359
34240000,106.723220319,150.52795541,84.820852774,0.658,0.2525,0.46,0.018,0.251,0.269,0.0802250752385,0.018,0.251,0.269,0.0802250752385,0.018,0.251,0.269,0.0802250752385,0.018,0.251,0.269,0.0802250752385,0.014,0.251,0.265,0.0623679323814,0.014,0.251,0.265,0.0623679323814
34480000,96.2799776899,140.523035451,74.1584488095,0.7475,0.173,0.5885,0.014,0.161,0.175,0.0831330128205,0.014,0.161,0.175,0.0831330128205,0.014,0.161,0.175,0.0831330128205,0.014,0.159,0.173,0.083606497669,0.014,0.159,0.173,0.083606497669,0.014,0.159,0.173,0.083606497669
34480000,97.4121465863,134.335939638,78.9502500606,0.6405,0.204,0.4785,0.0105,0.203,0.2135,0.0526003344482,0.0105,0.203,0.2135,0.0526003344482,0.0105,0.203,0.2135,0.0526003344482,0.0105,0.203,0.2135,0.0526003344482,0.0105,0.203,0.2135,0.0526003344482,0.0105,0.203,0.2135,0.0526003344482
34480000,98.054949209,140.451179733,76.8568339469,0.6995,0.1985,0.5185,0.014,0.191,0.205,0.0729089026915,0.014,0.191,0.205,0.0729089026915,0.014,0.191,0.205,0.0729089026915,0.014,0.191,0.205,0.0729089026915,0.014,0.191,0.205,0.0729089026915,0.014,0.191,0.205,0.0729089026915
34480000,98.7013855094,148.152039844,73.9760583423,0.824,0.1735,0.623,0.011,0.1565,0.1675,0.0679545454545,0.011,0.1565,0.1675,0.0679545454545,0.011,0.1565,0.1675,0.0679545454545,0.011,0.1565,0.1675,0.0679545454545,0.008,0.1565,0.1645,0.0529545454545,0.008,0.1565,0.1645,0.0529545454545
34480000,99.3359269117,148.891465455,74.5581576401,0.815,0.201,0.614,0.0285,0.1895,0.218,0.153952282462,0.0285,0.1895,0.218,0.153952282462,0.0285,0.1895,0.218,0.153952282462,0.0285,0.1895,0.218,0.153952282462,0.0285,0.1895,0.218,0.153952282462,0.0285,0.1895,0.218,0.153952282462
34480000,99.7801859957,149.655545707,74.8425061401,0.7835,0.1965,0.587,0.011,0.172,0.183,0.0623511904762,0.011,0.172,0.183,0.0623511904762,0.011,0.172,0.183,0.0623511904762,0.011,0.172,0.183,0.0623511904762,0.011,0.172,0.183,0.0623511904762,0.011,0.172,0.183,0.0623511904762
34480000,100.021768816,146.618739641,76.7232834041,0.8975,0.284,0.6535,0.021,0.2825,0.3035,0.0764785282468,0.021,0.2825,0.3035,0.0764785282468,0.021,0.2825,0.3035,0.0764785282468,0.021,0.2825,0.3035,0.0764785282468,0.021,0.2825,0.3035,0.0764785282468,0.021,0.2825,0.3035,0.0764785282468
34480000,100.146145332,149.517012255,75.4607118701,0.7795,0.1985,0.584,0.021,0.195,0.216,0.106751893939,0.021,0.195,0.216,0.106751893939,0.021,0.195,0.216,0.106751893939,0.021,0.195,0.216,0.106751893939,0.021,0.195,0.216,0.106751893939,0.021,0.195,0.216,0.106751893939
34480000,100.298291408,149.66158355,75.6166453371,0.7585,0.1925,0.568,0.0095,0.1905,0.2,0.0497237318841,0.0095,0.1905,0.2,0.0497237318841,0.0095,0.1905,0.2,0.0497237318841,0.0095,0.1905,0.2,0.0497237318841,0.0095,0.1905,0.2,0.0497237318841,0.0095,0.1905,0.2,0.0497237318841
34480000,100.947504959,150.013585211,76.4144648328,0.8145,0.2,0.615,0.027,0.1945,0.2215,0.137838628763,0.027,0.1945,0.2215,0.137838628763,0.027,0.1945,0.2215,0.137838628763,0.027,0.1945,0.2215,0.137838628763,0.027,0.1945,0.2215,0.137838628763,0.027,0.1945,0.2215,0.137838628763
34480000,100.971894979,150.12310029,76.3962923226,0.79,0.1935,0.5935,0.014,0.19,0.204,0.074108201581,0.014,0.19,0.204,0.074108201581,0.014,0.19,0.204,0.074108201581,0.014,0.19,0.204,0.074108201581,0.014,0.19,0.204,0.074108201581,0.014,0.19,0.204,0.074108201581
34480000,100.989969027,149.980586314,76.4946603832,0.7875,0.1975,0.589,0.009,0.185,0.194,0.0486956521739,0.009,0.185,0.194,0.0486956521739,0.009,0.185,0.194,0.0486956521739,0.009,0.185,0.194,0.0486956521739,0.009,0.185,0.194,0.0486956521739,0.009,0.185,0.194,0.0486956521739
34480000,101.164924248,149.761830112,76.8664713158,0.868,0.2295,0.644,0.0115,0.2255,0.237,0.0517155856596,0.0115,0.2255,0.237,0.0517155856596,0.0115,0.2255,0.237,0.0517155856596,0.0115,0.2255,0.237,0.0517155856596,0.0115,0.2255,0.237,0.0517155856596,0.0115,0.2255,0.237,0.0517155856596
34480000,101.203471102,150.140726814,76.7348432462,0.8035,0.198,0.606,0.0195,0.194,0.2135,0.102274557166,0.0195,0.194,0.2135,0.102274557166,0.0195,0.194,0.2135,0.102274557166,0.0195,0.194,0.2135,0.102274557166,0.0195,0.194,0.2135,0.102274557166,0.0195,0.194,0.2135,0.102274557166
34480000,101.217057681,149.931182699,76.8599951718,0.786,0.201,0.587,0.014,0.1825,0.1965,0.076374513168,0.014,0.1825,0.1965,0.076374513168,0.014,0.1825,0.1965,0.076374513168,0.014,0.1825,0.1965,0.076374513168,0.014,0.1825,0.1965,0.076374513168,0.014,0.1825,0.1965,0.076374513168
34480000,101.228315428,150.117687282,76.7836295006,0.744,0.2,0.56,0.008,0.2,0.208,0.04,0.008,0.2,0.208,0.04,0.008,0.2,0.208,0.04,0.008,0.2,0.208,0.04,0.008,0.2,0.208,0.04,0.008,0.2,0.208,0.04
34480000,101.907189342,149.699537721,78.0110151519,0.7625,0.196,0.569,0.016,0.185,0.201,0.0862878787879,0.016,0.185,0.201,0.0862878787879,0.016,0.185,0.201,0.0862878787879,0.016,0.185,0.201,0.0862878787879,0.016,0.185,0.201,0.0862878787879,0.016,0.185,0.201,0.0862878787879
34480000,102.371261019,146.464312166,80.324735446,0.7285,0.211,0.532,0.01,0.207,0.217,0.0491666666667,0.01,0.207,0.217,0.0491666666667,0.01,0.207,0.217,0.0491666666667,0.01,0.207,0.217,0.0491666666667,0.01,0.207,0.217,0.0491666666667,0.01,0.207,0.217,0.0491666666667
34480000,102.647337395,150.06224053,78.9398858278,0.7865,0.199,0.586,0.0165,0.189,0.2055,0.0887401185771,0.0165,0.189,0.2055,0.0887401185771,0.0165,0.189,0.2055,0.0887401185771,0.0165,0.189,0.2055,0.0887401185771,0.0165,0.189,0.2055,0.0887401185771,0.0165,0.189,0.2055,0.0887401185771
34480000,102.864733202,150.068392027,79.2629037898,0.8105,0.2015,0.609,0.015,0.183,0.198,0.0822529644269,0.015,0.183,0.198,0.0822529644269,0.015,0.183,0.198,0.0822529644269,0.015,0.183,0.198,0.0822529644269,0.015,0.183,0.198,0.0822529644269,0.015,0.183,0.198,0.0822529644269
34480000,102.889124649,150.10739687,79.2799885387,0.82,0.21,0.507,0.009,0.209,0.218,0.0429955229955,0.009,0.209,0.218,0.0429955229955,0.009,0.209,0.218,0.0429955229955,0.009,0.209,0.218,0.0429955229955,0.009,0.209,0.218,0.0429955229955,0.009,0.209,0.218,0.0429955229955
34480000,102.994481649,150.678314045,79.1525654503,0.8255,0.198,0.6245,0.0175,0.1775,0.195,0.0990847920196,0.0175,0.1775,0.195,0.0990847920196,0.0175,0.1775,0.195,0.0990847920196,0.0175,0.1775,0.195,0.0990847920196,0.0175,0.1775,0.195,0.0990847920196,0.0175,0.1775,0.195,0.0990847920196
34480000,103.558817003,150.233126035,80.2216624864,0.815,0.205,0.61,0.018,0.2015,0.2195,0.088869047619,0.018,0.2015,0.2195,0.088869047619,0.018,0.2015,0.2195,0.088869047619,0.018,0.2015,0.2195,0.088869047619,0.018,0.2015,0.2195,0.088869047619,0.018,0.2015,0.2195,0.088869047619
34480000,103.65831736,150.196427099,80.3892624911,0.795,0.1945,0.5915,0.011,0.194,0.205,0.0569272575251,0.011,0.194,0.205,0.0569272575251,0.011,0.194,0.205,0.0569272575251,0.011,0.194,0.205,0.0569272575251,0.011,0.194,0.205,0.0569272575251,0.011,0.194,0.205,0.0569272575251
34480000,103.741893441,150.257545656,80.4840673329,0.777,0.2,0.5785,0.0085,0.196,0.2045,0.0433333333333,0.0085,0.196,0.2045,0.0433333333333,0.0085,0.196,0.2045,0.0433333333333,0.0085,0.196,0.2045,0.0433333333333,0.0085,0.196,0.2045,0.0433333333333,0.0085,0.196,0.2045,0.0433333333333
34480000,103.909523004,150.316276522,80.7061462455,0.762,0.2005,0.569,0.032,0.1995,0.2315,0.160520833333,0.032,0.1995,0.2315,0.160520833333,0.032,0.1995,0.2315,0.160520833333,0.032,0.1995,0.2315,0.160520833333,0.032,0.1995,0.2315,0.160520833333,0.032,0.1995,0.2315,0.160520833333
34480000,104.03350031,150.314490977,80.8930049771,0.785,0.194,0.579,0.018,0.191,0.209,0.0954347826087,0.018,0.191,0.209,0.0954347826087,0.018,0.191,0.209,0.0954347826087,0.018,0.191,0.209,0.0954347826087,0.018,0.191,0.209,0.0954347826087,0.018,0.191,0.209,0.0954347826087
34480000,104.971396948,147.720068854,83.5970609951,0.7295,0.1955,0.5395,0.008,0.1915,0.1995,0.0418432971014,0.008,0.1915,0.1995,0.0418432971014,0.008,0.1915,0.1995,0.0418432971014,0.008,0.1915,0.1995,0.0418432971014,0.008,0.1915,0.1995,0.0418432971014,0.008,0.1915,0.1995,0.0418432971014
34480000,105.007602656,148.431124699,83.2958416345,0.7555,0.2035,0.551,0.02,0.1915,0.2115,0.10287377451,0.02,0.1915,0.2115,0.10287377451,0.02,0.1915,0.2115,0.10287377451,0.02,0.1915,0.2115,0.10287377451,0.02,0.1915,0.2115,0.10287377451,0.02,0.1915,0.2115,0.10287377451
34480000,105.132079315,149.328685039,83.0337764526,0.658,0.211,0.43,0.018,0.206,0.224,0.087371031746,0.018,0.206,0.224,0.087371031746,0.018,0.206,0.224,0.087371031746,0.018,0.206,0.224,0.087371031746,0.018,0.206,0.224,0.087371031746,0.018,0.206,0.224,0.087371031746
34480000,106.471006205,150.450512302,84.4812531563,0.77,0.231,0.562,0.0085,0.1945,0.203,0.0477450445536,0.0085,0.1945,0.203,0.0477450445536,0.0085,0.1945,0.203,0.0477450445536,0.0085,0.1945,0.203,0.0477450445536,0.0085,0.1945,0.203,0.0477450445536,0.0085,0.1945,0.203,0.0477450445536
34600000,94.8507210537,138.868395442,72.8418838595,0.791,0.2425,0.5775,0.017,0.2345,0.2515,0.0897022251642,0.017,0.2345,0.2515,0.0897022251642,0.017,0.2345,0.2515,0.0897022251642,0.017,0.2345,0.2515,0.0897022251642,0.017,0.2345,0.2515,0.0897022251642,0.017,0.2345,0.2515,0.0897022251642
34600000,95.3953791652,138.44464007,73.8707487128,0.78,0.18,0.5955,0.0115,0.1725,0.184,0.067352484472,0.0115,0.1725,0.184,0.067352484472,0.0115,0.1725,0.184,0.067352484472,0.0115,0.1725,0.184,0.067352484472,0.0115,0.1725,0.184,0.067352484472,0.0115,0.1725,0.184,0.067352484472
34600000,96.2212191639,139.564650708,74.5495033919,0.7795,0.1935,0.59,0.0275,0.192,0.2195,0.1425,0.0275,0.192,0.2195,0.1425,0.0275,0.192,0.2195,0.1425,0.0275,0.192,0.2195,0.1425,0.0275,0.192,0.2195,0.1425,0.0275,0.192,0.2195,0.1425
34600000,96.2776476913,139.004797721,74.9140726766,0.7575,0.1845,0.574,0.012,0.1795,0.1915,0.0664149256541,0.012,0.1795,0.1915,0.0664149256541,0.012,0.1795,0.1915,0.0664149256541,0.012,0.1795,0.1915,0.0664149256541,0.012,0.1795,0.1915,0.0664149256541,0.012,0.1795,0.1915,0.0664149256541
34600000,97.0429758604,140.974223896,75.0773518428,0.7885,0.18,0.598,0.0135,0.1735,0.187,0.0775730519481,0.0125,0.1735,0.186,0.0725730519481,0.0125,0.1735,0.186,0.0725730519481,0.0125,0.1735,0.186,0.0725730519481,0.0125,0.1735,0.186,0.0725730519481,0.0125,0.1735,0.186,0.0725730519481
34600000,97.3279970579,141.865964859,75.0590131576,0.7555,0.189,0.573,0.0145,0.184,0.1985,0.0808238636364,0.0145,0.184,0.1985,0.0808238636364,0.0145,0.184,0.1985,0.0808238636364,0.0145,0.184,0.1985,0.0808238636364,0.0145,0.184,0.1985,0.0808238636364,0.0145,0.184,0.1985,0.0808238636364
34600000,97.4286004241,142.971554414,74.6571234291,0.7675,0.175,0.592,0.024,0.169,0.193,0.141660970608,0.024,0.169,0.193,0.141660970608,0.024,0.169,0.193,0.141660970608,0.024,0.169,0.193,0.141660970608,0.024,0.169,0.193,0.141660970608,0.024,0.169,0.193,0.141660970608
34600000,97.4764061736,142.604094965,74.9125617779,0.797,0.1905,0.608,0.009,0.1835,0.1925,0.048933629776,0.009,0.1835,0.1925,0.048933629776,0.009,0.1835,0.1925,0.048933629776,0.009,0.1835,0.1925,0.048933629776,0.009,0.1835,0.1925,0.048933629776,0.009,0.1835,0.1925,0.048933629776
34600000,97.6009844182,142.611477553,75.0957378508,0.7525,0.216,0.573,0.009,0.215,0.224,0.0449713330148,0.009,0.215,0.224,0.0449713330148,0.009,0.215,0.224,0.0449713330148,0.009,0.215,0.224,0.0449713330148,0.009,0.215,0.224,0.0449713330148,0.009,0.215,0.224,0.0449713330148
34600000,97.8135398453,143.407192985,75.0167132752,0.7805,0.1795,0.6065,0.014,0.177,0.191,0.0811594202899,0.014,0.177,0.191,0.0811594202899,0.014,0.177,0.191,0.0811594202899,0.014,0.177,0.191,0.0811594202899,0.014,0.177,0.191,0.0811594202899,0.014,0.177,0.191,0.0811594202899
34600000,98.1384278857,143.201531726,75.6068759655,0.7535,0.1825,0.574,0.0245,0.177,0.2015,0.13952216262,0.0225,0.177,0.1995,0.127617400715,0.0225,0.177,0.1995,0.127617400715,0.0225,0.177,0.1995,0.127617400715,0.0225,0.177,0.1995,0.127617400715,0.0215,0.177,0.1985,0.121935582533
34600000,98.1456497603,141.490229079,76.4733601009,0.7765,0.2015,0.556,0.012,0.1985,0.2105,0.0613153714565,0.012,0.1985,0.2105,0.0613153714565,0.012,0.1985,0.2105,0.0613153714565,0.012,0.1985,0.2105,0.0613153714565,0.012,0.1985,0.2105,0.0613153714565,0.012,0.1985,0.2105,0.0613153714565
34600000,98.2792833478,143.321321793,75.758264125,0.7695,0.1855,0.5835,0.01,0.1765,0.1865,0.0564476284585,0.01,0.1765,0.1865,0.0564476284585,0.01,0.1765,0.1865,0.0564476284585,0.01,0.1765,0.1865,0.0564476284585,0.01,0.1765,0.1865,0.0564476284585,0.01,0.1765,0.1865,0.0564476284585
34600000,98.8304476479,142.677654147,76.9068443984,0.749,0.182,0.5645,0.0175,0.1765,0.194,0.0985319028797,0.0175,0.1765,0.194,0.0985319028797,0.0175,0.1765,0.194,0.0985319028797,0.0175,0.1765,0.194,0.0985319028797,0.0175,0.1765,0.194,0.0985319028797,0.0175,0.1765,0.194,0.0985319028797
34600000,99.1928823249,143.105288932,77.2366790216,0.7765,0.186,0.5875,0.012,0.18,0.192,0.0672348484848,0.012,0.18,0.192,0.0672348484848,0.012,0.18,0.192,0.0672348484848,0.012,0.18,0.192,0.0672348484848,0.012,0.18,0.192,0.0672348484848,0.012,0.18,0.192,0.0672348484848
34600000,99.2208664409,144.580769751,76.540914786,0.7575,0.19,0.5735,0.0175,0.1795,0.197,0.0978997642327,0.0175,0.1795,0.197,0.0978997642327,0.0175,0.1795,0.197,0.0978997642327,0.0175,0.1795,0.197,0.0978997642327,0.0175,0.1795,0.197,0.0978997642327,0.0175,0.1795,0.197,0.0978997642327
34600000,99.4575809048,144.146562997,77.1130898585,0.749,0.185,0.5675,0.0155,0.1705,0.186,0.0909443817053,0.0155,0.1705,0.186,0.0909443817053,0.0155,0.1705,0.186,0.0909443817053,0.0155,0.1705,0.186,0.0909443817053,0.0155,0.1705,0.186,0.0909443817053,0.0155,0.1705,0.186,0.0909443817053
34600000,99.5851582998,139.490307493,79.6325837033,0.688,0.171,0.5115,0.0175,0.145,0.1625,0.13207521645,0.0175,0.145,0.1625,0.13207521645,0.0175,0.145,0.1625,0.13207521645,0.0175,0.145,0.1625,0.13207521645,0.0175,0.145,0.1625,0.13207521645,0.0175,0.145,0.1625,0.13207521645
34600000,99.5888945442,144.050079723,77.3583019549,0.7715,0.189,0.5845,0.018,0.187,0.205,0.0984025032938,0.018,0.187,0.205,0.0984025032938,0.018,0.187,0.205,0.0984025032938,0.018,0.187,0.205,0.0984025032938,0.018,0.187,0.205,0.0984025032938,0.018,0.187,0.205,0.0984025032938
34600000,99.5909794369,144.333243665,77.219847323,0.7485,0.184,0.569,0.0135,0.18,0.1935,0.0754899538867,0.0135,0.18,0.1935,0.0754899538867,0.0135,0.18,0.1935,0.0754899538867,0.0135,0.18,0.1935,0.0754899538867,0.0135,0.18,0.1935,0.0754899538867,0.0135,0.18,0.1935,0.0754899538867
34600000,99.6552072219,143.767853677,77.5988839944,0.761,0.1825,0.572,0.0115,0.1725,0.184,0.0666282389108,0.0115,0.1725,0.184,0.0666282389108,0.0115,0.1725,0.184,0.0666282389108,0.0115,0.1725,0.184,0.0666282389108,0.0115,0.1715,0.183,0.0670367356429,0.0115,0.1595,0.171,0.0702976052081
34600000,99.9558645463,144.785818386,77.5408876264,0.7615,0.1875,0.578,0.0105,0.179,0.1895,0.0590885563712,0.0105,0.179,0.1895,0.0590885563712,0.0105,0.179,0.1895,0.0590885563712,0.0105,0.179,0.1895,0.0590885563712,0.0105,0.179,0.1895,0.0590885563712,0.0105,0.179,0.1895,0.0590885563712
34600000,99.9602550737,144.650873234,77.6149459937,0.7635,0.1855,0.5785,0.014,0.169,0.183,0.0814672459893,0.014,0.165,0.179,0.0836317481538,0.014,0.165,0.179,0.0836317481538,0.014,0.165,0.179,0.0836317481538,0.014,0.165,0.179,0.0836317481538,0.014,0.165,0.179,0.0836317481538
34600000,100.08014262,144.915637105,77.6623953767,0.7165,0.182,0.5295,0.0165,0.174,0.1905,0.0965415019763,0.0165,0.174,0.1905,0.0965415019763,0.0165,0.174,0.1905,0.0965415019763,0.0165,0.174,0.1905,0.0965415019763,0.0165,0.174,0.1905,0.0965415019763,0.0165,0.174,0.1905,0.0965415019763
34600000,100.081027225,145.633949701,77.3045659864,0.745,0.185,0.5585,0.012,0.1745,0.1865,0.0697493177113,0.012,0.1745,0.1865,0.0697493177113,0.012,0.1745,0.1865,0.0697493177113,0.012,0.1745,0.1865,0.0697493177113,0.012,0.1745,0.1865,0.0697493177113,0.012,0.1745,0.1865,0.0697493177113
34600000,100.268222448,146.048518605,77.3780743699,0.755,0.184,0.567,0.0155,0.1695,0.185,0.0918231225296,0.0155,0.1695,0.185,0.0918231225296,0.0155,0.1695,0.185,0.0918231225296,0.0155,0.1695,0.185,0.0918231225296,0.0155,0.1695,0.185,0.0918231225296,0.0155,0.1695,0.185,0.0918231225296
34600000,100.314070386,145.389259698,77.7764757296,0.713,0.1695,0.534,0.0235,0.1665,0.19,0.142410714286,0.0235,0.1665,0.19,0.142410714286,0.0235,0.1665,0.19,0.142410714286,0.0235,0.1665,0.19,0.142410714286,0.0235,0.1665,0.19,0.142410714286,0.0235,0.1665,0.19,0.142410714286
34600000,100.372626722,144.767428857,78.1752256551,0.7405,0.1875,0.559,0.0125,0.1785,0.191,0.0693743530021,0.0125,0.1785,0.191,0.0693743530021,0.0125,0.1785,0.191,0.0693743530021,0.0125,0.1785,0.191,0.0693743530021,0.0125,0.1785,0.191,0.0693743530021,0.0125,0.1785,0.191,0.0693743530021
34600000,100.549814769,146.051215324,77.7991144908,0.7875,0.188,0.5935,0.0295,0.1875,0.217,0.156826416337,0.0295,0.1875,0.217,0.156826416337,0.0295,0.1875,0.217,0.156826416337,0.0295,0.1875,0.217,0.156826416337,0.0295,0.1875,0.217,0.156826416337,0.0295,0.1875,0.217,0.156826416337
34600000,100.842196336,145.162541991,78.6820235091,0.7505,0.1855,0.556,0.0375,0.172,0.2095,0.220532185206,0.0375,0.172,0.2095,0.220532185206,0.0375,0.172,0.2095,0.220532185206,0.0375,0.172,0.2095,0.220532185206,0.0375,0.172,0.2095,0.220532185206,0.0375,0.172,0.2095,0.220532185206
34600000,100.956487403,145.16522398,78.852119115,0.7325,0.195,0.553,0.015,0.1895,0.2045,0.0799512987013,0.015,0.1895,0.2045,0.0799512987013,0.015,0.1895,0.2045,0.0799512987013,0.015,0.1895,0.2045,0.0799512987013,0.015,0.1895,0.2045,0.0799512987013,0.015,0.1895,0.2045,0.0799512987013
34600000,101.876480587,146.299073624,79.6651840679,0.744,0.185,0.5595,0.024,0.1755,0.1995,0.129611330698,0.024,0.1755,0.1995,0.129611330698,0.024,0.1755,0.1995,0.129611330698,0.024,0.1755,0.1995,0.129611330698,0.024,0.1755,0.1995,0.129611330698,0.024,0.1755,0.1995,0.129611330698
34600000,102.584228908,148.873600089,79.4395433168,0.753,0.212,0.548,0.013,0.208,0.221,0.0641595441595,0.013,0.208,0.221,0.0641595441595,0.013,0.208,0.221,0.0641595441595,0.013,0.208,0.221,0.0641595441595,0.013,0.206,0.219,0.0649928774929,0.013,0.206,0.219,0.0649928774929
34600000,102.768681522,148.391215071,79.9574147476,0.7375,0.187,0.557,0.0155,0.1825,0.198,0.0844623447205,0.0155,0.1825,0.198,0.0844623447205,0.0155,0.1825,0.198,0.0844623447205,0.0155,0.1825,0.198,0.0844623447205,0.0155,0.1825,0.198,0.0844623447205,0.0155,0.1825,0.198,0.0844623447205
34600000,102.812723891,148.912178915,79.7629963789,0.751,0.1785,0.565,0.0125,0.1755,0.188,0.0702596411979,0.0125,0.1755,0.188,0.0702596411979,0.0125,0.1755,0.188,0.0702596411979,0.0125,0.1755,0.188,0.0702596411979,0.0125,0.1755,0.188,0.0702596411979,0.0125,0.1755,0.188,0.0702596411979
34600000,103.069896754,148.963309431,80.1231904161,0.708,0.1845,0.524,0.0115,0.17,0.1815,0.0663819875776,0.0115,0.17,0.1815,0.0663819875776,0.0115,0.17,0.1815,0.0663819875776,0.0115,0.17,0.1815,0.0663819875776,0.0115,0.17,0.1815,0.0663819875776,0.0115,0.17,0.1815,0.0663819875776
34600000,104.011057205,149.743136527,81.1450175436,0.721,0.1905,0.523,0.022,0.178,0.2,0.121579861111,0.022,0.1775,0.1995,0.122881944444,0.022,0.1775,0.1995,0.122881944444,0.018,0.177,0.195,0.104370039683,0.018,0.177,0.195,0.104370039683,0.018,0.177,0.195,0.104370039683
34600000,104.229621837,147.821225233,82.4338201395,0.721,0.181,0.53,0.0105,0.171,0.1815,0.0604022283971,0.0105,0.171,0.1815,0.0604022283971,0.0105,0.171,0.1815,0.0604022283971,0.0105,0.171,0.1815,0.0604022283971,0.0105,0.171,0.1815,0.0604022283971,0.0105,0.171,0.1815,0.0604022283971
34600000,104.634900485,149.828221018,82.0382402184,0.6925,0.173,0.5185,0.024,0.168,0.192,0.142803030303,0.024,0.168,0.192,0.142803030303,0.024,0.168,0.192,0.142803030303,0.024,0.168,0.192,0.142803030303,0.024,0.168,0.192,0.142803030303,0.024,0.168,0.192,0.142803030303
34600000,104.674898808,149.267489675,82.3786033742,0.74,0.189,0.55,0.019,0.173,0.192,0.11875,0.019,0.173,0.192,0.11875,0.018,0.173,0.191,0.110416666667,0.018,0.173,0.191,0.110416666667,0.018,0.173,0.191,0.110416666667,0.018,0.173,0.191,0.110416666667
34600000,106.986531535,149.941921892,85.5088363573,0.714,0.186,0.5415,0.015,0.1835,0.1985,0.0821849120083,0.015,0.1835,0.1985,0.0821849120083,0.015,0.1835,0.1985,0.0821849120083,0.015,0.1835,0.1985,0.0821849120083,0.015,0.1835,0.1985,0.0821849120083,0.015,0.1835,0.1985,0.0821849120083
34640000,99.3869375721,141.05228558,78.5542635682,0.793,0.215,0.6,0.01,0.1925,0.2025,0.0487310606061,0.01,0.1925,0.2025,0.0487310606061,0.01,0.1925,0.2025,0.0487310606061,0.01,0.1925,0.2025,0.0487310606061,0.01,0.1925,0.2025,0.0487310606061,0.01,0.1925,0.2025,0.0487310606061
34640000,102.356741132,147.761100158,79.6545616187,0.8025,0.192,0.6115,0.0155,0.1805,0.196,0.0888537549407,0.0155,0.18,0.1955,0.0891243177113,0.0155,0.18,0.1955,0.0891243177113,0.0155,0.18,0.1955,0.0891243177113,0.0155,0.18,0.1955,0.0891243177113,0.0155,0.18,0.1955,0.0891243177113
34640000,102.375290818,147.097023447,80.0144245033,0.8005,0.188,0.6085,0.0165,0.1615,0.178,0.0968936487639,0.0165,0.1615,0.178,0.0968936487639,0.0165,0.1615,0.178,0.0968936487639,0.0165,0.1615,0.178,0.0968936487639,0.0165,0.1615,0.178,0.0968936487639,0.0165,0.1615,0.178,0.0968936487639
34640000,103.369612925,148.415678124,80.8465803248,0.809,0.1895,0.6185,0.0155,0.1835,0.199,0.0851346343874,0.0155,0.1835,0.199,0.0851346343874,0.0155,0.1835,0.199,0.0851346343874,0.0155,0.1835,0.199,0.0851346343874,0.0145,0.1835,0.198,0.079926301054,0.0145,0.1835,0.198,0.079926301054
34640000,103.640928829,149.838381245,80.5422026207,0.8815,0.1915,0.5665,0.0225,0.172,0.1945,0.13125,0.0225,0.172,0.1945,0.13125,0.0225,0.172,0.1945,0.13125,0.0225,0.172,0.1945,0.13125,0.0225,0.172,0.1945,0.13125,0.0225,0.1715,0.194,0.131520562771
34640000,103.65839173,147.039408817,81.9678831861,0.7725,0.192,0.5925,0.013,0.1785,0.1915,0.0733513542617,0.013,0.1785,0.1915,0.0733513542617,0.013,0.1785,0.1915,0.0733513542617,0.013,0.1785,0.1915,0.0733513542617,0.013,0.1785,0.1915,0.0733513542617,0.013,0.1785,0.1915,0.0733513542617
34640000,104.859407505,147.592474885,83.4928738149,0.7785,0.1825,0.59,0.02,0.1785,0.1985,0.116969931088,0.02,0.1785,0.1985,0.116969931088,0.02,0.1785,0.1985,0.116969931088,0.02,0.1785,0.1985,0.116969931088,0.02,0.1785,0.1985,0.116969931088,0.02,0.1785,0.1985,0.116969931088
34640000,105.150235874,148.626008371,83.4123496253,0.785,0.1855,0.6005,0.0445,0.1665,0.211,0.255936119507,0.0165,0.1665,0.183,0.0968452104162,0.0165,0.1665,0.183,0.0968452104162,0.0165,0.1665,0.183,0.0968452104162,0.0165,0.1665,0.183,0.0968452104162,0.0165,0.1665,0.183,0.0968452104162
34640000,105.167586614,149.593258321,82.9547507599,0.8065,0.189,0.615,0.011,0.1815,0.1925,0.0630659014898,0.011,0.1815,0.1925,0.0630659014898,0.011,0.1815,0.1925,0.0630659014898,0.011,0.1815,0.1925,0.0630659014898,0.011,0.1815,0.1925,0.0630659014898,0.011,0.1815,0.1925,0.0630659014898
34640000,105.21814508,145.279571889,85.1874316756,0.712,0.182,0.518,0.022,0.182,0.204,0.123064888011,0.022,0.182,0.204,0.123064888011,0.022,0.182,0.204,0.123064888011,0.022,0.182,0.204,0.123064888011,0.022,0.182,0.204,0.123064888011,0.022,0.182,0.204,0.123064888011
34760000,100.891738828,148.827602175,76.9238071544,0.745,0.1805,0.5665,0.0115,0.167,0.1785,0.0685425685426,0.0115,0.167,0.1785,0.0685425685426,0.0115,0.167,0.1785,0.0685425685426,0.0115,0.167,0.1785,0.0685425685426,0.0115,0.167,0.1785,0.0685425685426,0.0115,0.167,0.1785,0.0685425685426
34760000,101.089260365,147.506309366,77.8807358643,0.712,0.1775,0.5435,0.022,0.174,0.196,0.129486783597,0.022,0.174,0.196,0.129486783597,0.022,0.174,0.196,0.129486783597,0.022,0.174,0.196,0.129486783597,0.022,0.174,0.196,0.129486783597,0.022,0.174,0.196,0.129486783597
34760000,101.441971824,149.773125783,77.2763948444,0.7255,0.1825,0.5405,0.017,0.1785,0.1955,0.097858436853,0.017,0.1785,0.1955,0.097858436853,0.017,0.1785,0.1955,0.097858436853,0.017,0.1785,0.1955,0.097858436853,0.017,0.1785,0.1955,0.097858436853,0.017,0.1785,0.1955,0.097858436853
34760000,101.742489615,149.845759448,77.6908546991,0.749,0.1835,0.5645,0.0085,0.178,0.1865,0.0495882740448,0.0085,0.178,0.1865,0.0495882740448,0.0085,0.178,0.1865,0.0495882740448,0.0085,0.178,0.1865,0.0495882740448,0.0085,0.178,0.1865,0.0495882740448,0.0085,0.178,0.1865,0.0495882740448
34760000,101.824846392,150.052732254,77.7109034608,0.728,0.1845,0.5415,0.013,0.179,0.192,0.0733009442249,0.013,0.179,0.192,0.0733009442249,0.013,0.179,0.192,0.0733009442249,0.013,0.179,0.192,0.0733009442249,0.013,0.179,0.192,0.0733009442249,0.013,0.179,0.192,0.0733009442249
34760000,102.066008953,149.536380443,78.3308232087,0.7265,0.184,0.545,0.014,0.172,0.186,0.0812229437229,0.014,0.172,0.186,0.0812229437229,0.014,0.172,0.186,0.0812229437229,0.014,0.172,0.186,0.0812229437229,0.014,0.172,0.186,0.0812229437229,0.014,0.172,0.186,0.0812229437229
34760000,102.712941356,150.241472323,78.948675873,0.726,0.168,0.555,0.0135,0.162,0.1755,0.0820790200138,0.0135,0.162,0.1755,0.0820790200138,0.0135,0.162,0.1755,0.0820790200138,0.0135,0.162,0.1755,0.0820790200138,0.0135,0.162,0.1755,0.0820790200138,0.0135,0.162,0.1755,0.0820790200138
34760000,102.85498326,149.748990153,79.4079798139,0.7055,0.168,0.478,0.012,0.164,0.176,0.0726325757576,0.012,0.164,0.176,0.0726325757576,0.012,0.164,0.176,0.0726325757576,0.012,0.164,0.176,0.0726325757576,0.012,0.155,0.167,0.0773944805195,0.012,0.155,0.167,0.0773944805195
34760000,103.072335183,150.214288983,79.5013582829,0.7135,0.179,0.5315,0.0185,0.173,0.1915,0.105633293337,0.0185,0.173,0.1915,0.105633293337,0.0185,0.173,0.1915,0.105633293337,0.0185,0.173,0.1915,0.105633293337,0.0185,0.173,0.1915,0.105633293337,0.0185,0.173,0.1915,0.105633293337
34760000,103.653809216,149.521268658,80.7200794955,0.716,0.15,0.541,0.028,0.1385,0.1665,0.22448656416,0.028,0.1385,0.1665,0.22448656416,0.028,0.1385,0.1665,0.22448656416,0.024,0.1385,0.1625,0.186025025699,0.024,0.1385,0.1625,0.186025025699,0.024,0.1385,0.1625,0.186025025699
34760000,103.849083199,142.870902933,84.3381733318,0.7085,0.197,0.514,0.0125,0.1945,0.207,0.0645577429817,0.0125,0.1945,0.207,0.0645577429817,0.0125,0.1945,0.207,0.0645577429817,0.0125,0.1945,0.207,0.0645577429817,0.0125,0.1945,0.207,0.0645577429817,0.0125,0.1945,0.207,0.0645577429817
34760000,104.972422335,147.624525016,83.6463709951,0.709,0.178,0.5325,0.0085,0.175,0.1835,0.0491514111365,0.0085,0.175,0.1835,0.0491514111365,0.0085,0.175,0.1835,0.0491514111365,0.0085,0.175,0.1835,0.0491514111365,0.0085,0.175,0.1835,0.0491514111365,0.0085,0.175,0.1835,0.0491514111365
34760000,105.175568177,145.616261263,84.9552216334,0.732,0.194,0.531,0.0115,0.1915,0.203,0.0600792343727,0.0115,0.1915,0.203,0.0600792343727,0.0115,0.1915,0.203,0.0600792343727,0.0115,0.1915,0.203,0.0600792343727,0.0115,0.1915,0.203,0.0600792343727,0.0115,0.1915,0.203,0.0600792343727
34760000,105.468532929,146.156355986,85.1246214008,0.7225,0.207,0.5155,0.011,0.194,0.205,0.0567109113712,0.011,0.194,0.205,0.0567109113712,0.011,0.194,0.205,0.0567109113712,0.011,0.194,0.205,0.0567109113712,0.011,0.194,0.205,0.0567109113712,0.011,0.194,0.205,0.0567109113712
34760000,105.539955059,149.896420951,83.3617221131,0.716,0.1725,0.538,0.0095,0.1675,0.177,0.0576113579403,0.0095,0.1675,0.177,0.0576113579403,0.0095,0.1675,0.177,0.0576113579403,0.0095,0.1675,0.177,0.0576113579403,0.0095,0.1675,0.177,0.0576113579403,0.0095,0.1675,0.177,0.0576113579403
34760000,105.623516775,148.737535865,84.0665072305,0.7255,0.176,0.5575,0.0215,0.168,0.1895,0.126704545455,0.0215,0.168,0.1895,0.126704545455,0.0215,0.168,0.1895,0.126704545455,0.0215,0.168,0.1895,0.126704545455,0.0215,0.168,0.1895,0.126704545455,0.0215,0.168,0.1895,0.126704545455
34760000,105.631096918,150.181134257,83.3560782486,0.72,0.176,0.536,0.008,0.16,0.168,0.05,0.008,0.144,0.152,0.0555555555556,0.008,0.144,0.152,0.0555555555556,0.008,0.144,0.152,0.0555555555556,0.008,0.144,0.152,0.0555555555556,0.008,0.144,0.152,0.0555555555556
34760000,106.28415183,150.408277763,84.2220888634,0.6945,0.2105,0.5215,0.0085,0.2075,0.216,0.0428925507873,0.0085,0.2075,0.216,0.0428925507873,0.0085,0.2075,0.216,0.0428925507873,0.0085,0.2075,0.216,0.0428925507873,0.0085,0.2075,0.216,0.0428925507873,0.0085,0.2075,0.216,0.0428925507873
34760000,106.784256722,147.51110601,86.4208320783,0.72,0.197,0.5195,0.018,0.1965,0.2145,0.0915856481481,0.018,0.1965,0.2145,0.0915856481481,0.018,0.1965,0.2145,0.0915856481481,0.018,0.1965,0.2145,0.0915856481481,0.018,0.1965,0.2145,0.0915856481481,0.018,0.1965,0.2145,0.0915856481481
34760000,107.205943662,146.912496502,87.3526672416,0.79,0.213,0.595,0.0345,0.208,0.2425,0.1632332975,0.0345,0.208,0.2425,0.1632332975,0.0345,0.208,0.2425,0.1632332975,0.0345,0.208,0.2425,0.1632332975,0.0345,0.208,0.2425,0.1632332975,0.0345,0.208,0.2425,0.1632332975
34760000,107.256280879,150.328207174,85.7203177323,0.7675,0.1775,0.5905,0.024,0.175,0.199,0.137716450216,0.024,0.175,0.199,0.137716450216,0.024,0.175,0.199,0.137716450216,0.024,0.175,0.199,0.137716450216,0.024,0.175,0.199,0.137716450216,0.024,0.175,0.199,0.137716450216
34760000,107.26477185,144.789468379,88.5024235858,0.7155,0.255,0.502,0.0125,0.233,0.2455,0.0561417748918,0.0125,0.233,0.2455,0.0561417748918,0.0125,0.233,0.2455,0.0561417748918,0.0125,0.233,0.2455,0.0561417748918,0.0125,0.233,0.2455,0.0561417748918,0.0125,0.233,0.2455,0.0561417748918
34760000,107.723252814,150.107971748,86.5308933464,0.719,0.1745,0.5395,0.039,0.1535,0.1925,0.276049105413,0.039,0.1535,0.1925,0.276049105413,0.039,0.1535,0.1925,0.276049105413,0.039,0.1535,0.1925,0.276049105413,0.039,0.1535,0.1925,0.276049105413,0.039,0.1535,0.1925,0.276049105413
34760000,107.77286198,148.243719778,87.5374330814,0.72,0.224,0.5035,0.014,0.224,0.238,0.0656818978029,0.014,0.224,0.238,0.0656818978029,0.014,0.224,0.238,0.0656818978029,0.014,0.224,0.238,0.0656818978029,0.014,0.224,0.238,0.0656818978029,0.014,0.224,0.238,0.0656818978029
34760000,107.905141417,150.771870604,86.471776824,0.6735,0.1625,0.4895,0.0095,0.161,0.1705,0.060375132908,0.0095,0.161,0.1705,0.060375132908,0.0095,0.161,0.1705,0.060375132908,0.0095,0.161,0.1705,0.060375132908,0.0095,0.159,0.1685,0.0609433147262,0.0095,0.159,0.1685,0.0609433147262
34760000,108.168434859,150.130312074,87.1874962508,0.723,0.1785,0.5435,0.009,0.158,0.167,0.0570323773449,0.009,0.158,0.167,0.0570323773449,0.009,0.158,0.167,0.0570323773449,0.009,0.158,0.167,0.0570323773449,0.009,0.158,0.167,0.0570323773449,0.009,0.158,0.167,0.0570323773449
34760000,108.292374135,149.433219537,87.7219514339,0.7145,0.2045,0.5165,0.0195,0.188,0.2075,0.111014581143,0.0195,0.188,0.2075,0.111014581143,0.0195,0.188,0.2075,0.111014581143,0.0195,0.188,0.2075,0.111014581143,0.0195,0.188,0.2075,0.111014581143,0.0195,0.188,0.2075,0.111014581143
34760000,108.315241645,147.902023874,88.5218505308,0.6715,0.1985,0.471,0.015,0.1915,0.2065,0.0805485275594,0.015,0.1915,0.2065,0.0805485275594,0.015,0.1915,0.2065,0.0805485275594,0.015,0.1915,0.2065,0.0805485275594,0.015,0.1915,0.2065,0.0805485275594,0.015,0.1915,0.2065,0.0805485275594
34760000,108.354083104,150.088193671,87.4870278203,0.753,0.183,0.5715,0.021,0.177,0.198,0.118120059289,0.021,0.177,0.198,0.118120059289,0.021,0.177,0.198,0.118120059289,0.021,0.177,0.198,0.118120059289,0.021,0.177,0.198,0.118120059289,0.021,0.177,0.198,0.118120059289
34760000,108.555575206,150.188449909,87.739137855,0.6925,0.1755,0.517,0.0205,0.1725,0.193,0.119737554113,0.0205,0.1725,0.193,0.119737554113,0.0205,0.1715,0.192,0.120364120529,0.0205,0.1715,0.192,0.120364120529,0.0205,0.1715,0.192,0.120364120529,0.0205,0.1715,0.192,0.120364120529
34760000,108.911565426,150.227769525,88.2534633762,0.7445,0.178,0.5655,0.0145,0.176,0.1905,0.0829668972332,0.0145,0.176,0.1905,0.0829668972332,0.0145,0.176,0.1905,0.0829668972332,0.0135,0.176,0.1895,0.0767168972332,0.0135,0.176,0.1895,0.0767168972332,0.0135,0.176,0.1895,0.0767168972332
34760000,109.018098361,150.108948927,88.4726730783,0.728,0.175,0.548,0.021,0.172,0.193,0.121085858586,0.021,0.172,0.193,0.121085858586,0.021,0.1695,0.1905,0.122421328671,0.021,0.1695,0.1905,0.122421328671,0.021,0.1695,0.1905,0.122421328671,0.021,0.1695,0.1905,0.122421328671
34760000,109.157540565,149.007115845,89.2327529248,0.724,0.2155,0.5205,0.009,0.215,0.224,0.042676161919,0.009,0.215,0.224,0.042676161919,0.009,0.215,0.224,0.042676161919,0.009,0.215,0.224,0.042676161919,0.009,0.215,0.224,0.042676161919,0.009,0.215,0.224,0.042676161919
34760000,109.187352219,150.230001343,88.6660276572,0.6015,0.2935,0.4375,0.0165,0.2825,0.299,0.0701917130489,0.0165,0.2825,0.299,0.0701917130489,0.0165,0.2825,0.299,0.0701917130489,0.0165,0.2825,0.299,0.0701917130489,0.0165,0.2825,0.299,0.0701917130489,0.0165,0.2825,0.299,0.0701917130489
34760000,109.309000656,150.214533364,88.8562343015,0.7285,0.179,0.5525,0.0145,0.1775,0.192,0.0812217673631,0.0145,0.1775,0.192,0.0812217673631,0.0145,0.1775,0.192,0.0812217673631,0.0145,0.1775,0.192,0.0812217673631,0.0145,0.1775,0.192,0.0812217673631,0.0145,0.1775,0.192,0.0812217673631
34760000,109.527786274,149.931375934,89.3259914444,0.7175,0.1915,0.5255,0.025,0.1755,0.2005,0.142914000251,0.025,0.1755,0.2005,0.142914000251,0.025,0.1755,0.2005,0.142914000251,0.025,0.1755,0.2005,0.142914000251,0.025,0.1755,0.2005,0.142914000251,0.025,0.1755,0.2005,0.142914000251
34760000,109.527967277,149.46066614,89.561617845,0.677,0.209,0.476,0.017,0.203,0.22,0.08809472435,0.017,0.203,0.22,0.08809472435,0.017,0.203,0.22,0.08809472435,0.017,0.203,0.22,0.08809472435,0.017,0.203,0.22,0.08809472435,0.017,0.203,0.22,0.08809472435
34760000,109.645569542,149.427616521,89.7545460531,0.7255,0.2525,0.495,0.0215,0.2465,0.268,0.103710474308,0.0215,0.2465,0.268,0.103710474308,0.0215,0.2465,0.268,0.103710474308,0.0215,0.2465,0.268,0.103710474308,0.0215,0.2465,0.268,0.103710474308,0.021,0.2465,0.2675,0.101210474308
34760000,110.080588826,149.259510678,90.4911278994,0.6725,0.2145,0.4785,0.0165,0.2025,0.219,0.0850754727728,0.0165,0.2025,0.219,0.0850754727728,0.0165,0.2025,0.219,0.0850754727728,0.0165,0.2025,0.219,0.0850754727728,0.0165,0.2025,0.219,0.0850754727728,0.0165,0.2025,0.219,0.0850754727728
34800000,102.435425756,137.382956298,84.9616604857,0.506,0.2005,0.3665,0.015,0.195,0.21,0.0748626373626,0.015,0.195,0.21,0.0748626373626,0.015,0.195,0.21,0.0748626373626,0.015,0.195,0.21,0.0748626373626,0.015,0.195,0.21,0.0748626373626,0.015,0.195,0.21,0.0748626373626
34800000,102.483941501,141.174646395,83.1385890541,0.671,0.227,0.4945,0.0135,0.2155,0.229,0.0675259785796,0.0135,0.2155,0.229,0.0675259785796,0.0135,0.2155,0.229,0.0675259785796,0.0135,0.2155,0.229,0.0675259785796,0.0135,0.2155,0.229,0.0675259785796,0.0135,0.2155,0.229,0.0675259785796
34800000,103.703985452,148.508668208,81.3016440746,0.68,0.176,0.504,0.008,0.144,0.152,0.0555555555556,0.008,0.144,0.152,0.0555555555556,0.008,0.144,0.152,0.0555555555556,0.008,0.144,0.152,0.0555555555556,0.008,0.144,0.152,0.0555555555556,0.008,0.144,0.152,0.0555555555556
34800000,103.880748198,148.783697161,81.4292737166,0.686,0.181,0.5045,0.011,0.1745,0.1855,0.0699936969879,0.0105,0.1745,0.185,0.0647853636546,0.0105,0.1745,0.185,0.0647853636546,0.0105,0.1745,0.185,0.0647853636546,0.0105,0.1745,0.185,0.0647853636546,0.0105,0.1745,0.185,0.0647853636546
34800000,104.13329767,147.267089166,82.566401922,0.667,0.208,0.4625,0.0115,0.2015,0.213,0.055294462004,0.0115,0.2015,0.213,0.055294462004,0.0115,0.2015,0.213,0.055294462004,0.0115,0.2015,0.213,0.055294462004,0.0115,0.2015,0.213,0.055294462004,0.0115,0.2015,0.213,0.055294462004
34800000,104.443731242,148.288649944,82.5212718917,0.6755,0.177,0.486,0.0085,0.166,0.1745,0.0552065687935,0.0085,0.166,0.1745,0.0552065687935,0.0085,0.166,0.1745,0.0552065687935,0.0085,0.166,0.1745,0.0552065687935,0.0085,0.166,0.1745,0.0552065687935,0.0085,0.166,0.1745,0.0552065687935
34800000,105.572739349,146.070604802,85.3238066223,0.6605,0.1685,0.493,0.029,0.166,0.195,0.179423740511,0.029,0.166,0.195,0.179423740511,0.026,0.166,0.192,0.158590407177,0.026,0.166,0.192,0.158590407177,0.026,0.166,0.192,0.158590407177,0.026,0.166,0.192,0.158590407177
34800000,106.47042724,146.970462852,86.2204094342,0.6715,0.2205,0.478,0.01,0.2175,0.2275,0.0462911636692,0.01,0.2175,0.2275,0.0462911636692,0.01,0.2175,0.2275,0.0462911636692,0.01,0.2175,0.2275,0.0462911636692,0.01,0.2175,0.2275,0.0462911636692,0.01,0.2175,0.2275,0.0462911636692
34800000,106.673307274,146.747169899,86.6363759614,0.665,0.189,0.4855,0.0145,0.1855,0.2,0.0780797101449,0.0145,0.1855,0.2,0.0780797101449,0.0145,0.1855,0.2,0.0780797101449,0.0145,0.1855,0.2,0.0780797101449,0.0145,0.1855,0.2,0.0780797101449,0.0145,0.1855,0.2,0.0780797101449
34800000,106.789174865,149.37838193,85.4945713325,0.693,0.2195,0.483,0.0165,0.2135,0.23,0.0795701581028,0.0165,0.2135,0.23,0.0795701581028,0.0165,0.2135,0.23,0.0795701581028,0.0165,0.2135,0.23,0.0795701581028,0.0165,0.2135,0.23,0.0795701581028,0.0165,0.2135,0.23,0.0795701581028
34800000,106.860698869,149.176133061,85.7029817733,0.687,0.375,0.5035,0.0125,0.364,0.3765,0.0436233043547,0.0125,0.364,0.3765,0.0436233043547,0.0125,0.364,0.3765,0.0436233043547,0.0125,0.364,0.3765,0.0436233043547,0.0125,0.364,0.3765,0.0436233043547,0.0125,0.364,0.3765,0.0436233043547
34800000,107.040045684,149.066975656,86.0265806975,0.6365,0.1915,0.4245,0.018,0.184,0.202,0.102893217893,0.018,0.184,0.202,0.102893217893,0.0175,0.184,0.2015,0.0984289321789,0.0175,0.184,0.2015,0.0984289321789,0.0175,0.184,0.2015,0.0984289321789,0.0175,0.184,0.2015,0.0984289321789
34800000,107.479874296,150.112232052,86.1636954184,0.67,0.253,0.424,0.012,0.2485,0.2605,0.0553236456526,0.012,0.2485,0.2605,0.0553236456526,0.012,0.2485,0.2605,0.0553236456526,0.012,0.2485,0.2605,0.0553236456526,0.012,0.2485,0.2605,0.0553236456526,0.012,0.2485,0.2605,0.0553236456526
34800000,108.006780226,150.323570279,86.8483852002,0.6655,0.2325,0.4005,0.0165,0.224,0.2405,0.0891575529733,0.0165,0.224,0.2405,0.0891575529733,0.0165,0.224,0.2405,0.0891575529733,0.0165,0.224,0.2405,0.0891575529733,0.0165,0.224,0.2405,0.0891575529733,0.0165,0.224,0.2405,0.0891575529733
34800000,109.070933201,149.23529239,88.9887536061,0.6565,0.29,0.437,0.0225,0.262,0.2845,0.0844417735043,0.0225,0.262,0.2845,0.0844417735043,0.0225,0.262,0.2845,0.0844417735043,0.0225,0.262,0.2845,0.0844417735043,0.0225,0.262,0.2845,0.0844417735043,0.0225,0.262,0.2845,0.0844417735043
34840000,89.0755652401,118.717094453,74.2548006335,0.6885,0.1735,0.4075,0.0295,0.165,0.1945,0.179477813853,0.0295,0.165,0.1945,0.179477813853,0.0295,0.165,0.1945,0.179477813853,0.0295,0.165,0.1945,0.179477813853,0.0295,0.165,0.1945,0.179477813853,0.0295,0.165,0.1945,0.179477813853
34840000,90.6631952193,128.922673126,71.5334562662,0.6975,0.164,0.528,0.01,0.1625,0.1725,0.0618321371611,0.01,0.1625,0.1725,0.0618321371611,0.01,0.1625,0.1725,0.0618321371611,0.01,0.1625,0.1725,0.0618321371611,0.01,0.1625,0.1725,0.0618321371611,0.01,0.1625,0.1725,0.0618321371611
34840000,91.4630306124,128.340909438,73.0240911998,0.691,0.186,0.507,0.0185,0.179,0.1975,0.123694240542,0.0185,0.179,0.1975,0.123694240542,0.0185,0.179,0.1975,0.123694240542,0.0185,0.179,0.1975,0.123694240542,0.0185,0.179,0.1975,0.123694240542,0.0185,0.179,0.1975,0.123694240542
34840000,92.0322959108,130.485827962,72.8055298853,0.7,0.1695,0.521,0.024,0.1625,0.1865,0.148958333333,0.024,0.1625,0.1865,0.148958333333,0.024,0.1625,0.1865,0.148958333333,0.024,0.1625,0.1865,0.148958333333,0.024,0.1625,0.1865,0.148958333333,0.024,0.1625,0.1865,0.148958333333
34840000,92.116993002,129.656388253,73.3472953763,0.6775,0.168,0.5115,0.022,0.1595,0.1815,0.13708205172,0.022,0.1595,0.1815,0.13708205172,0.022,0.1595,0.1815,0.13708205172,0.022,0.1595,0.1815,0.13708205172,0.022,0.1595,0.1815,0.13708205172,0.022,0.1595,0.1815,0.13708205172
34840000,92.2151726114,130.208998769,73.2182595326,0.6875,0.1765,0.509,0.0185,0.171,0.1895,0.108630952381,0.0185,0.171,0.1895,0.108630952381,0.0185,0.171,0.1895,0.108630952381,0.0185,0.171,0.1895,0.108630952381,0.0185,0.171,0.1895,0.108630952381,0.0185,0.171,0.1895,0.108630952381
34840000,92.6687345651,130.735516593,73.6353435513,0.693,0.18,0.5145,0.0105,0.1675,0.178,0.0662573164971,0.0105,0.1675,0.178,0.0662573164971,0.0105,0.1675,0.178,0.0662573164971,0.0105,0.1675,0.178,0.0662573164971,0.0105,0.1675,0.178,0.0662573164971,0.0105,0.1675,0.178,0.0662573164971
34840000,92.7104042875,131.696182628,73.2175151174,0.6875,0.173,0.5205,0.0145,0.166,0.1805,0.0880591630592,0.0145,0.166,0.1805,0.0880591630592,0.0145,0.166,0.1805,0.0880591630592,0.0145,0.166,0.1805,0.0880591630592,0.0145,0.166,0.1805,0.0880591630592,0.0145,0.166,0.1805,0.0880591630592
34840000,93.007962944,130.49880383,74.262542501,0.68,0.1835,0.5045,0.0245,0.159,0.1835,0.153290897699,0.0245,0.159,0.1835,0.153290897699,0.0245,0.159,0.1835,0.153290897699,0.0125,0.159,0.1715,0.0782908976988,0.0125,0.159,0.1715,0.0782908976988,0.0125,0.159,0.1715,0.0782908976988
34840000,93.5795590173,131.33824444,74.7002163059,0.682,0.1755,0.506,0.0135,0.1755,0.189,0.0769986354225,0.0135,0.1755,0.189,0.0769986354225,0.0135,0.174,0.1875,0.0778138528139,0.0135,0.174,0.1875,0.0778138528139,0.0135,0.174,0.1875,0.0778138528139,0.0135,0.174,0.1875,0.0778138528139
34840000,93.6931104305,129.054714794,76.0123082486,0.663,0.187,0.477,0.0115,0.179,0.1905,0.0663406188754,0.0115,0.179,0.1905,0.0663406188754,0.0115,0.179,0.1905,0.0663406188754,0.0115,0.179,0.1905,0.0663406188754,0.0115,0.179,0.1905,0.0663406188754,0.0115,0.179,0.1905,0.0663406188754
34840000,94.1551367694,131.824649277,75.3203805156,0.6835,0.177,0.508,0.0295,0.167,0.1965,0.175784632035,0.0295,0.167,0.1965,0.175784632035,0.0295,0.167,0.1965,0.175784632035,0.0295,0.167,0.1965,0.175784632035,0.0285,0.167,0.1955,0.169832251082,0.0285,0.167,0.1955,0.169832251082
34840000,94.1582440576,133.592523757,74.4411042077,0.6825,0.169,0.514,0.0195,0.1585,0.178,0.12537202381,0.0195,0.1585,0.178,0.12537202381,0.0195,0.1585,0.178,0.12537202381,0.0195,0.1585,0.178,0.12537202381,0.0195,0.1585,0.178,0.12537202381,0.0195,0.1585,0.178,0.12537202381
34840000,94.1837278338,131.980762415,75.2852105434,0.6605,0.241,0.426,0.019,0.235,0.254,0.120468093129,0.019,0.235,0.254,0.120468093129,0.019,0.235,0.254,0.120468093129,0.019,0.235,0.254,0.120468093129,0.019,0.235,0.254,0.120468093129,0.019,0.235,0.254,0.120468093129
34840000,94.4779902501,135.831549422,73.8012106642,0.693,0.17,0.518,0.015,0.1595,0.1745,0.0939301378446,0.015,0.1595,0.1745,0.0939301378446,0.015,0.1595,0.1745,0.0939301378446,0.015,0.1595,0.1745,0.0939301378446,0.015,0.1595,0.1745,0.0939301378446,0.015,0.1595,0.1745,0.0939301378446
34840000,94.578552186,131.955808513,75.8899240223,0.6775,0.173,0.501,0.026,0.17,0.196,0.154329004329,0.026,0.17,0.196,0.154329004329,0.026,0.17,0.196,0.154329004329,0.026,0.17,0.196,0.154329004329,0.018,0.17,0.188,0.10670995671,0.018,0.17,0.188,0.10670995671
34840000,94.9514325797,138.882389974,72.9859538826,0.688,0.1735,0.5175,0.018,0.1525,0.1705,0.115627610693,0.018,0.1525,0.1705,0.115627610693,0.018,0.1525,0.1705,0.115627610693,0.018,0.1525,0.1705,0.115627610693,0.018,0.1525,0.1705,0.115627610693,0.018,0.1525,0.1705,0.115627610693
34840000,95.1774046969,136.332668864,74.5997726131,0.666,0.1735,0.4925,0.0125,0.1665,0.179,0.0747835497835,0.0125,0.1665,0.179,0.0747835497835,0.0125,0.1665,0.179,0.0747835497835,0.0125,0.1665,0.179,0.0747835497835,0.0125,0.1665,0.179,0.0747835497835,0.0125,0.1665,0.179,0.0747835497835
34840000,95.4351662606,134.999755516,75.6528716328,0.65,0.1905,0.4755,0.022,0.1865,0.2085,0.118960535079,0.022,0.1865,0.2085,0.118960535079,0.022,0.1865,0.2085,0.118960535079,0.022,0.1865,0.2085,0.118960535079,0.022,0.1865,0.2085,0.118960535079,0.022,0.1865,0.2085,0.118960535079
34840000,95.4696104012,131.756112464,77.3263593696,0.6455,0.1765,0.474,0.013,0.1755,0.1885,0.0767513736264,0.013,0.1755,0.1885,0.0767513736264,0.013,0.1755,0.1885,0.0767513736264,0.013,0.1755,0.1885,0.0767513736264,0.013,0.1755,0.1885,0.0767513736264,0.013,0.1755,0.1885,0.0767513736264
34840000,96.2090504476,139.17421861,74.7264663666,0.6825,0.1675,0.516,0.0215,0.164,0.1855,0.133294118163,0.0215,0.164,0.1855,0.133294118163,0.0215,0.164,0.1855,0.133294118163,0.0215,0.164,0.1855,0.133294118163,0.0215,0.164,0.1855,0.133294118163,0.0215,0.164,0.1855,0.133294118163
34840000,96.4722608217,133.329822897,78.0434797841,0.632,0.209,0.385,0.0285,0.205,0.2335,0.162871475371,0.0285,0.205,0.2335,0.162871475371,0.0285,0.205,0.2335,0.162871475371,0.0285,0.205,0.2335,0.162871475371,0.0285,0.205,0.2335,0.162871475371,0.0285,0.205,0.2335,0.162871475371
34840000,96.7557885735,139.171072224,75.5481467483,0.669,0.168,0.496,0.012,0.1635,0.1755,0.0727835213033,0.012,0.1635,0.1755,0.0727835213033,0.012,0.1635,0.1755,0.0727835213033,0.012,0.1635,0.1755,0.0727835213033,0.012,0.1635,0.1755,0.0727835213033,0.012,0.1635,0.1755,0.0727835213033
34840000,97.1623899926,139.094705819,76.1962320792,0.6645,0.1745,0.492,0.029,0.167,0.196,0.173373440285,0.029,0.167,0.196,0.173373440285,0.029,0.167,0.196,0.173373440285,0.009,0.167,0.176,0.0543258212376,0.009,0.167,0.176,0.0543258212376,0.009,0.167,0.176,0.0543258212376
34840000,97.21987968,135.547231579,78.0562037304,0.66,0.2405,0.4865,0.017,0.2295,0.2465,0.0798321922643,0.017,0.2295,0.2465,0.0798321922643,0.017,0.2295,0.2465,0.0798321922643,0.017,0.2295,0.2465,0.0798321922643,0.017,0.2295,0.2465,0.0798321922643,0.017,0.2295,0.2465,0.0798321922643
34840000,97.5212692848,135.000434378,78.7816867382,0.654,0.194,0.4195,0.0125,0.194,0.2065,0.0658690268065,0.0125,0.194,0.2065,0.0658690268065,0.0125,0.194,0.2065,0.0658690268065,0.0125,0.194,0.2065,0.0658690268065,0.0125,0.194,0.2065,0.0658690268065,0.0125,0.194,0.2065,0.0658690268065
34840000,98.0142291589,141.295748997,76.37346924,0.7025,0.188,0.517,0.0095,0.176,0.1855,0.0535183566434,0.0095,0.176,0.1855,0.0535183566434,0.0095,0.176,0.1855,0.0535183566434,0.0095,0.176,0.1855,0.0535183566434,0.0095,0.176,0.1855,0.0535183566434,0.0095,0.176,0.1855,0.0535183566434
34840000,98.2755168876,135.206502327,79.8100241678,0.6745,0.2475,0.4595,0.016,0.2345,0.2505,0.0755990980918,0.016,0.2345,0.2505,0.0755990980918,0.016,0.2345,0.2505,0.0755990980918,0.012,0.2345,0.2465,0.0505990980918,0.012,0.2345,0.2465,0.0505990980918,0.012,0.2345,0.2465,0.0505990980918
34840000,98.5765167986,141.445092477,77.1422289593,0.67,0.1725,0.494,0.0265,0.1575,0.184,0.166579131653,0.0265,0.1575,0.184,0.166579131653,0.0265,0.1575,0.184,0.166579131653,0.0265,0.1535,0.18,0.173158079021,0.0265,0.1535,0.18,0.173158079021,0.0265,0.1535,0.18,0.173158079021
34840000,98.6688730355,141.5957563,77.2054314032,0.668,0.174,0.492,0.0155,0.1725,0.188,0.0898268398268,0.0155,0.1725,0.188,0.0898268398268,0.0155,0.1725,0.188,0.0898268398268,0.0155,0.1725,0.188,0.0898268398268,0.0155,0.1725,0.188,0.0898268398268,0.0155,0.1725,0.188,0.0898268398268
34840000,99.8448168574,145.058358889,77.2380458415,0.6795,0.1685,0.5155,0.009,0.151,0.16,0.0597848788638,0.009,0.151,0.16,0.0597848788638,0.009,0.151,0.16,0.0597848788638,0.009,0.151,0.16,0.0597848788638,0.009,0.151,0.16,0.0597848788638,0.009,0.151,0.16,0.0597848788638
34840000,100.028277006,142.704331991,78.6902495138,0.6795,0.184,0.4975,0.012,0.1775,0.1895,0.0669713438735,0.012,0.1775,0.1895,0.0669713438735,0.012,0.1775,0.1895,0.0669713438735,0.012,0.1775,0.1895,0.0669713438735,0.012,0.1775,0.1895,0.0669713438735,0.012,0.1775,0.1895,0.0669713438735
34840000,100.257211767,144.133805416,78.3189149421,0.686,0.1805,0.504,0.0145,0.169,0.1835,0.0857919254658,0.0145,0.169,0.1835,0.0857919254658,0.0145,0.169,0.1835,0.0857919254658,0.0145,0.169,0.1835,0.0857919254658,0.0145,0.169,0.1835,0.0857919254658,0.0145,0.169,0.1835,0.0857919254658
34840000,100.432582759,144.971751833,78.1629982228,0.6615,0.1675,0.4855,0.0185,0.1535,0.172,0.124613003096,0.0185,0.1535,0.172,0.124613003096,0.0185,0.1535,0.172,0.124613003096,0.0185,0.1535,0.172,0.124613003096,0.0185,0.1535,0.172,0.124613003096,0.0185,0.1535,0.172,0.124613003096
34840000,100.998916947,144.603361362,79.1966947394,0.6675,0.175,0.496,0.012,0.172,0.184,0.0693630382775,0.012,0.172,0.184,0.0693630382775,0.012,0.172,0.184,0.0693630382775,0.012,0.172,0.184,0.0693630382775,0.012,0.172,0.184,0.0693630382775,0.012,0.172,0.184,0.0693630382775
34840000,101.002620445,144.132579232,79.4376410518,0.6605,0.169,0.4625,0.013,0.164,0.177,0.075156142167,0.013,0.164,0.177,0.075156142167,0.013,0.164,0.177,0.075156142167,0.013,0.164,0.177,0.075156142167,0.013,0.164,0.177,0.075156142167,0.013,0.164,0.177,0.075156142167
34840000,101.109392858,147.31100009,78.0085892425,0.6795,0.168,0.5115,0.011,0.1625,0.1735,0.0684667048638,0.011,0.1625,0.1735,0.0684667048638,0.011,0.1625,0.1735,0.0684667048638,0.011,0.1625,0.1735,0.0684667048638,0.01,0.1625,0.1725,0.0627848866819,0.01,0.1625,0.1725,0.0627848866819
34840000,101.316548661,144.308397163,79.8206244104,0.65,0.1625,0.489,0.025,0.161,0.186,0.151284461153,0.025,0.161,0.186,0.151284461153,0.025,0.161,0.186,0.151284461153,0.025,0.161,0.186,0.151284461153,0.025,0.161,0.186,0.151284461153,0.025,0.161,0.186,0.151284461153
34840000,101.56014618,146.636285086,79.0220767265,0.6685,0.1665,0.5055,0.0185,0.157,0.1755,0.119486215539,0.0185,0.157,0.1755,0.119486215539,0.0185,0.157,0.1755,0.119486215539,0.0185,0.157,0.1755,0.119486215539,0.0185,0.157,0.1755,0.119486215539,0.0185,0.157,0.1755,0.119486215539
34840000,101.693909557,147.003713718,79.0390074761,0.662,0.1705,0.494,0.0115,0.165,0.1765,0.0688967663725,0.0115,0.165,0.1765,0.0688967663725,0.0115,0.165,0.1765,0.0688967663725,0.0115,0.165,0.1765,0.0688967663725,0.0115,0.165,0.1765,0.0688967663725,0.0115,0.165,0.1765,0.0688967663725
34840000,101.929106567,146.758390829,79.5144644358,0.6835,0.1985,0.4575,0.0135,0.1925,0.206,0.0716550207039,0.0135,0.1925,0.206,0.0716550207039,0.0135,0.1925,0.206,0.0716550207039,0.0135,0.1925,0.206,0.0716550207039,0.0135,0.1925,0.206,0.0716550207039,0.0135,0.1925,0.206,0.0716550207039
34840000,102.07198765,146.335432858,79.9402650456,0.6425,0.1625,0.481,0.0225,0.1605,0.183,0.137803454715,0.0225,0.1605,0.183,0.137803454715,0.0225,0.1605,0.183,0.137803454715,0.0225,0.1605,0.183,0.137803454715,0.0225,0.1605,0.183,0.137803454715,0.0225,0.1605,0.183,0.137803454715
34840000,102.084072717,147.165553294,79.5433324287,0.669,0.18,0.489,0.0095,0.1705,0.18,0.0598514936535,0.0095,0.1705,0.18,0.0598514936535,0.0095,0.1705,0.18,0.0598514936535,0.0095,0.1705,0.18,0.0598514936535,0.0095,0.1705,0.18,0.0598514936535,0.0095,0.1705,0.18,0.0598514936535
34840000,102.270919251,146.887363443,79.9626971543,0.6365,0.2245,0.3675,0.01,0.2135,0.2235,0.0484068587673,0.01,0.2125,0.2225,0.0486656579392,0.01,0.2125,0.2225,0.0486656579392,0.01,0.2125,0.2225,0.0486656579392,0.01,0.2125,0.2225,0.0486656579392,0.01,0.2125,0.2225,0.0486656579392
34840000,102.727278677,147.820711797,80.1805621171,0.653,0.1635,0.4875,0.0105,0.163,0.1735,0.0640037593985,0.0105,0.163,0.1735,0.0640037593985,0.0105,0.163,0.1735,0.0640037593985,0.0105,0.163,0.1735,0.0640037593985,0.0105,0.163,0.1735,0.0640037593985,0.0105,0.163,0.1735,0.0640037593985
34840000,103.787225074,148.790217213,81.2857290039,0.644,0.1665,0.461,0.0205,0.155,0.1755,0.133895860976,0.0205,0.155,0.1755,0.133895860976,0.0205,0.155,0.1755,0.133895860976,0.0205,0.155,0.1755,0.133895860976,0.0205,0.155,0.1755,0.133895860976,0.0205,0.155,0.1755,0.133895860976
34840000,105.12452398,150.191328999,82.5911214711,0.644,0.1735,0.4705,0.009,0.169,0.178,0.0532435701553,0.009,0.169,0.178,0.0532435701553,0.009,0.169,0.178,0.0532435701553,0.009,0.169,0.178,0.0532435701553,0.009,0.169,0.178,0.0532435701553,0.009,0.169,0.178,0.0532435701553
34920000,83.7750532922,95.5423179115,77.8914209826,0.7595,0.1755,0.5815,0.012,0.1665,0.1785,0.0736516955267,0.012,0.1665,0.1785,0.0736516955267,0.012,0.1665,0.1785,0.0736516955267,0.012,0.1665,0.1785,0.0736516955267,0.012,0.1665,0.1785,0.0736516955267,0.012,0.1665,0.1785,0.0736516955267
34920000,85.4920471824,96.9734159504,79.7513627984,0.7695,0.1615,0.599,0.0225,0.155,0.1775,0.146875,0.0225,0.155,0.1775,0.146875,0.0225,0.155,0.1775,0.146875,0.0225,0.155,0.1775,0.146875,0.0225,0.155,0.1775,0.146875,0.0225,0.155,0.1775,0.146875
34920000,87.2254295733,99.1740253333,81.2511316933,0.7635,0.1675,0.596,0.0215,0.1655,0.187,0.129563492063,0.0215,0.1655,0.187,0.129563492063,0.0215,0.1655,0.187,0.129563492063,0.0215,0.1655,0.187,0.129563492063,0.0175,0.1655,0.183,0.105753968254,0.0175,0.1655,0.183,0.105753968254
34920000,87.5932339987,99.478541851,81.6505800725,0.7625,0.169,0.5985,0.008,0.158,0.166,0.0507593712542,0.008,0.158,0.166,0.0507593712542,0.008,0.158,0.166,0.0507593712542,0.008,0.158,0.166,0.0507593712542,0.008,0.158,0.166,0.0507593712542,0.008,0.158,0.166,0.0507593712542
34920000,89.239419519,99.6683967672,84.0249308949,0.7355,0.173,0.5655,0.026,0.17,0.196,0.153774350649,0.026,0.17,0.196,0.153774350649,0.026,0.17,0.196,0.153774350649,0.026,0.17,0.196,0.153774350649,0.026,0.17,0.196,0.153774350649,0.026,0.17,0.196,0.153774350649
34920000,89.6102344617,99.6531929987,84.5887551932,0.746,0.168,0.574,0.01,0.164,0.174,0.0613095238095,0.01,0.164,0.174,0.0613095238095,0.01,0.164,0.174,0.0613095238095,0.01,0.164,0.174,0.0613095238095,0.01,0.164,0.174,0.0613095238095,0.01,0.164,0.174,0.0613095238095
34920000,90.0309377318,102.117168399,83.9878223984,0.7335,0.1645,0.572,0.0185,0.1625,0.181,0.113220551378,0.0185,0.1625,0.181,0.113220551378,0.0185,0.1605,0.179,0.114682539683,0.0145,0.1605,0.175,0.090873015873,0.0145,0.1605,0.175,0.090873015873,0.0145,0.1605,0.175,0.090873015873
34920000,90.4431538297,103.04230676,84.1435773644,0.754,0.17,0.584,0.0625,0.1555,0.218,0.380239661654,0.0625,0.1555,0.218,0.380239661654,0.0625,0.1555,0.218,0.380239661654,0.0625,0.1555,0.218,0.380239661654,0.0625,0.1555,0.218,0.380239661654,0.0625,0.1555,0.218,0.380239661654
34920000,91.7750201025,104.047830545,85.638614881,0.7415,0.171,0.5795,0.0135,0.165,0.1785,0.0824494949495,0.0135,0.165,0.1785,0.0824494949495,0.0135,0.165,0.1785,0.0824494949495,0.0135,0.165,0.1785,0.0824494949495,0.0135,0.165,0.1785,0.0824494949495,0.0135,0.165,0.1785,0.0824494949495
34920000,92.0393204317,104.574627121,85.7716670871,0.7635,0.1675,0.594,0.02,0.1605,0.1805,0.128041457811,0.02,0.1605,0.1805,0.128041457811,0.02,0.1605,0.1805,0.128041457811,0.02,0.1605,0.1805,0.128041457811,0.02,0.1605,0.1805,0.128041457811,0.02,0.1605,0.1805,0.128041457811
34920000,94.3674884568,107.040489786,88.0309877923,0.7415,0.2495,0.536,0.019,0.2385,0.2575,0.0857218790116,0.019,0.2385,0.2575,0.0857218790116,0.019,0.2385,0.2575,0.0857218790116,0.019,0.2385,0.2575,0.0857218790116,0.019,0.2385,0.2575,0.0857218790116,0.019,0.2385,0.2575,0.0857218790116
34960000,89.559544005,104.938598829,81.8700165928,0.6075,0.141,0.454,0.024,0.134,0.158,0.198879300524,0.024,0.134,0.158,0.198879300524,0.024,0.134,0.158,0.198879300524,0.024,0.134,0.158,0.198879300524,0.024,0.134,0.158,0.198879300524,0.024,0.134,0.158,0.198879300524
34960000,90.1293014234,107.069214012,81.6593451293,0.6815,0.1555,0.5175,0.0195,0.1545,0.174,0.127840909091,0.0195,0.1545,0.174,0.127840909091,0.0195,0.1545,0.174,0.127840909091,0.0195,0.1545,0.174,0.127840909091,0.0195,0.1545,0.174,0.127840909091,0.0195,0.1545,0.174,0.127840909091
34960000,91.2604156471,108.240959848,82.7701435466,0.719,0.178,0.54,0.0305,0.1755,0.206,0.175295266328,0.0305,0.1755,0.206,0.175295266328,0.0305,0.1755,0.206,0.175295266328,0.0305,0.1755,0.206,0.175295266328,0.0305,0.1755,0.206,0.175295266328,0.0305,0.1755,0.206,0.175295266328
34960000,91.6146578151,111.988363633,81.4278049062,0.7745,0.222,0.5675,0.016,0.219,0.235,0.0833852409616,0.016,0.219,0.235,0.0833852409616,0.016,0.219,0.235,0.0833852409616,0.016,0.219,0.235,0.0833852409616,0.016,0.219,0.235,0.0833852409616,0.016,0.219,0.235,0.0833852409616
34960000,92.1705698645,109.344896346,83.583406624,0.718,0.164,0.5425,0.0105,0.158,0.1685,0.0713472642021,0.0105,0.158,0.1685,0.0713472642021,0.0105,0.158,0.1685,0.0713472642021,0.0105,0.158,0.1685,0.0713472642021,0.0105,0.158,0.1685,0.0713472642021,0.0105,0.158,0.1685,0.0713472642021
34960000,93.1728271652,109.535141384,84.9916700559,0.751,0.1795,0.5775,0.017,0.1775,0.1945,0.095726284585,0.017,0.1775,0.1945,0.095726284585,0.017,0.1775,0.1945,0.095726284585,0.0165,0.1775,0.194,0.0928853754941,0.0165,0.1755,0.192,0.0941480017567,0.0165,0.1755,0.192,0.0941480017567
34960000,93.354310298,109.73872881,85.162101042,0.7495,0.22,0.5235,0.0155,0.219,0.2345,0.0813041125541,0.0155,0.219,0.2345,0.0813041125541,0.0155,0.219,0.2345,0.0813041125541,0.0155,0.219,0.2345,0.0813041125541,0.0155,0.219,0.2345,0.0813041125541,0.0155,0.219,0.2345,0.0813041125541
34960000,93.502017744,109.26562288,85.6202151763,0.75,0.188,0.566,0.012,0.164,0.176,0.0688725490196,0.012,0.164,0.176,0.0688725490196,0.012,0.164,0.176,0.0688725490196,0.012,0.164,0.176,0.0688725490196,0.012,0.164,0.176,0.0688725490196,0.012,0.164,0.176,0.0688725490196
34960000,94.3424712162,112.923183367,85.0521151407,0.7485,0.174,0.5635,0.013,0.161,0.174,0.0817577030812,0.013,0.161,0.174,0.0817577030812,0.013,0.161,0.174,0.0817577030812,0.013,0.161,0.174,0.0817577030812,0.013,0.161,0.174,0.0817577030812,0.013,0.161,0.174,0.0817577030812
34960000,94.3970736675,113.789156312,84.701032345,0.733,0.2065,0.556,0.018,0.1965,0.2145,0.101658492217,0.018,0.1965,0.2145,0.101658492217,0.018,0.1965,0.2145,0.101658492217,0.018,0.1965,0.2145,0.101658492217,0.018,0.1965,0.2145,0.101658492217,0.018,0.1965,0.2145,0.101658492217
34960000,95.6992347884,116.145925506,85.4758894294,0.73,0.1775,0.489,0.016,0.172,0.188,0.0931106484096,0.016,0.17,0.186,0.0936282467532,0.016,0.17,0.186,0.0936282467532,0.016,0.17,0.186,0.0936282467532,0.016,0.17,0.186,0.0936282467532,0.016,0.17,0.186,0.0936282467532
34960000,96.4732842688,116.08258955,86.6686316282,0.7535,0.185,0.5755,0.0125,0.1755,0.188,0.0742659514399,0.0125,0.1755,0.188,0.0742659514399,0.0125,0.1755,0.188,0.0742659514399,0.0125,0.1755,0.188,0.0742659514399,0.0125,0.1755,0.188,0.0742659514399,0.0125,0.1755,0.188,0.0742659514399
34960000,96.8254643784,116.714083366,86.8811548844,0.73,0.1705,0.5125,0.017,0.1665,0.1835,0.104000799925,0.017,0.1665,0.1835,0.104000799925,0.017,0.1665,0.1835,0.104000799925,0.017,0.1665,0.1835,0.104000799925,0.017,0.1665,0.1835,0.104000799925,0.017,0.1665,0.1835,0.104000799925
34960000,97.6327749501,111.190295562,90.854014644,0.746,0.1765,0.5605,0.0105,0.1645,0.175,0.0639483065954,0.0105,0.1645,0.175,0.0639483065954,0.0105,0.1645,0.175,0.0639483065954,0.0105,0.1645,0.175,0.0639483065954,0.0105,0.1645,0.175,0.0639483065954,0.0105,0.1645,0.175,0.0639483065954
35000000,97.7742683548,120.944331726,86.1892366692,0.676,0.1695,0.514,0.0175,0.161,0.1785,0.110487155388,0.0175,0.161,0.1785,0.110487155388,0.0175,0.161,0.1785,0.110487155388,0.0175,0.161,0.1785,0.110487155388,0.0175,0.161,0.1785,0.110487155388,0.0115,0.161,0.1725,0.0710134711779
35000000,102.109000817,124.931437398,90.6977825257,0.676,0.172,0.508,0.012,0.164,0.176,0.0738095238095,0.012,0.164,0.176,0.0738095238095,0.012,0.164,0.176,0.0738095238095,0.012,0.164,0.176,0.0738095238095,0.012,0.164,0.176,0.0738095238095,0.012,0.164,0.176,0.0738095238095
35000000,103.309423622,127.947581218,90.9903448233,0.6775,0.166,0.502,0.0085,0.164,0.1725,0.0518308080808,0.0085,0.164,0.1725,0.0518308080808,0.0085,0.164,0.1725,0.0518308080808,0.0085,0.164,0.1725,0.0518308080808,0.0085,0.164,0.1725,0.0518308080808,0.0085,0.164,0.1725,0.0518308080808
35000000,105.227721957,127.713437895,93.9848639889,0.6835,0.1675,0.511,0.009,0.1665,0.1755,0.0537921508316,0.009,0.1665,0.1755,0.0537921508316,0.009,0.1665,0.1755,0.0537921508316,0.009,0.1665,0.1755,0.0537921508316,0.009,0.1665,0.1755,0.0537921508316,0.009,0.1665,0.1755,0.0537921508316
35000000,106.640437142,122.283260438,98.8190254933,0.6775,0.194,0.4935,0.0215,0.1855,0.207,0.113311688312,0.0215,0.1855,0.207,0.113311688312,0.0215,0.1855,0.207,0.113311688312,0.0215,0.1855,0.207,0.113311688312,0.0215,0.1855,0.207,0.113311688312,0.0215,0.1855,0.207,0.113311688312
35040000,87.5873026275,130.378992634,66.1914576244,0.709,0.349,0.473,0.008,0.34,0.348,0.0301551982808,0.008,0.34,0.348,0.0301551982808,0.008,0.34,0.348,0.0301551982808,0.008,0.34,0.348,0.0301551982808,0.008,0.34,0.348,0.0301551982808,0.008,0.34,0.348,0.0301551982808
35080000,87.9731611954,136.291567428,63.8139580792,0.772,0.224,0.442,0.012,0.224,0.236,0.0572435897436,0.012,0.224,0.236,0.0572435897436,0.012,0.224,0.236,0.0572435897436,0.012,0.224,0.236,0.0572435897436,0.012,0.224,0.236,0.0572435897436,0.012,0.224,0.236,0.0572435897436
35080000,88.2617205489,135.952926381,64.4161176327,0.759,0.188,0.564,0.017,0.183,0.2,0.0989789196311,0.017,0.183,0.2,0.0989789196311,0.017,0.183,0.2,0.0989789196311,0.017,0.183,0.2,0.0989789196311,0.017,0.183,0.2,0.0989789196311,0.017,0.183,0.2,0.0989789196311
35080000,90.4656438239,140.788520325,65.3042055734,0.78,0.1935,0.591,0.0105,0.1925,0.203,0.0543070652174,0.0105,0.1925,0.203,0.0543070652174,0.0105,0.1925,0.203,0.0543070652174,0.0105,0.1925,0.203,0.0543070652174,0.0105,0.1925,0.203,0.0543070652174,0.0105,0.1925,0.203,0.0543070652174
35080000,90.7752999856,138.484583645,66.9206581558,0.756,0.251,0.5385,0.02,0.25,0.27,0.0973066788284,0.02,0.25,0.27,0.0973066788284,0.02,0.25,0.27,0.0973066788284,0.02,0.25,0.27,0.0973066788284,0.02,0.25,0.27,0.0973066788284,0.02,0.25,0.27,0.0973066788284
35120000,85.5540797555,133.550086692,61.5560762871,0.7975,0.195,0.603,0.029,0.194,0.223,0.14865530303,0.029,0.194,0.223,0.14865530303,0.029,0.194,0.223,0.14865530303,0.029,0.194,0.223,0.14865530303,0.029,0.194,0.223,0.14865530303,0.029,0.194,0.223,0.14865530303
35120000,86.1926905215,133.56512268,62.5064744423,0.7715,0.197,0.575,0.0145,0.188,0.2025,0.0806534090909,0.0145,0.188,0.2025,0.0806534090909,0.0145,0.188,0.2025,0.0806534090909,0.0145,0.188,0.2025,0.0806534090909,0.0145,0.188,0.2025,0.0806534090909,0.0145,0.188,0.2025,0.0806534090909
35120000,86.1969340545,134.330342978,62.1302295926,0.78,0.1945,0.5865,0.01,0.1935,0.2035,0.0519112318841,0.01,0.1935,0.2035,0.0519112318841,0.01,0.1935,0.2035,0.0519112318841,0.01,0.1935,0.2035,0.0519112318841,0.01,0.1935,0.2035,0.0519112318841,0.01,0.1935,0.2035,0.0519112318841
35120000,86.5134804982,133.377134412,63.0816535414,0.761,0.1995,0.5735,0.0105,0.1925,0.203,0.0566316266209,0.0105,0.1925,0.203,0.0566316266209,0.0105,0.1925,0.203,0.0566316266209,0.0105,0.1925,0.203,0.0566316266209,0.0105,0.1925,0.203,0.0566316266209,0.0105,0.1925,0.203,0.0566316266209
35120000,87.0787987225,135.459632459,62.8883818542,0.796,0.1985,0.6005,0.013,0.187,0.2,0.0698134881423,0.013,0.187,0.2,0.0698134881423,0.013,0.186,0.199,0.070523715415,0.013,0.186,0.199,0.070523715415,0.013,0.186,0.199,0.070523715415,0.013,0.186,0.199,0.070523715415
35120000,87.1563236569,133.540124281,63.964423345,0.764,0.1895,0.5735,0.017,0.1805,0.1975,0.0981446328271,0.013,0.1805,0.1935,0.0718288433534,0.013,0.1805,0.1935,0.0718288433534,0.013,0.1805,0.1935,0.0718288433534,0.013,0.1805,0.1935,0.0718288433534,0.013,0.1805,0.1935,0.0718288433534
35120000,88.0779469101,134.810215328,64.7118127012,0.7725,0.195,0.5785,0.0095,0.191,0.2005,0.0505868271222,0.0095,0.191,0.2005,0.0505868271222,0.0095,0.191,0.2005,0.0505868271222,0.0095,0.191,0.2005,0.0505868271222,0.0095,0.191,0.2005,0.0505868271222,0.0095,0.191,0.2005,0.0505868271222
35120000,88.2328922773,138.221234108,63.238721362,0.7895,0.195,0.596,0.0255,0.1785,0.204,0.144676501035,0.0255,0.1785,0.204,0.144676501035,0.0255,0.1785,0.204,0.144676501035,0.0255,0.1785,0.204,0.144676501035,0.0255,0.1705,0.196,0.154701563692,0.0255,0.1705,0.196,0.154701563692
35120000,88.7481217535,137.123788488,64.5602883863,0.7495,0.183,0.5625,0.0215,0.181,0.2025,0.120244565217,0.0215,0.181,0.2025,0.120244565217,0.0215,0.181,0.2025,0.120244565217,0.0215,0.181,0.2025,0.120244565217,0.0215,0.181,0.2025,0.120244565217,0.0215,0.181,0.2025,0.120244565217
35120000,88.8162065258,136.079832689,65.1843934441,0.772,0.2165,0.569,0.01,0.2115,0.2215,0.0497252415459,0.01,0.2115,0.2215,0.0497252415459,0.01,0.2115,0.2215,0.0497252415459,0.01,0.2115,0.2215,0.0497252415459,0.01,0.2115,0.2215,0.0497252415459,0.01,0.2115,0.2215,0.0497252415459
35120000,88.9115113228,137.894339828,64.4200970701,0.7785,0.21,0.5835,0.0135,0.208,0.2215,0.0659749670619,0.0135,0.208,0.2215,0.0659749670619,0.0135,0.208,0.2215,0.0659749670619,0.0135,0.208,0.2215,0.0659749670619,0.0135,0.208,0.2215,0.0659749670619,0.0135,0.208,0.2215,0.0659749670619
35120000,89.1692399102,138.486859732,64.5104299993,0.7865,0.192,0.5915,0.0145,0.1755,0.19,0.0822299665914,0.0145,0.1705,0.185,0.0837396284271,0.0145,0.1705,0.185,0.0837396284271,0.0145,0.1705,0.185,0.0837396284271,0.0145,0.1705,0.185,0.0837396284271,0.0145,0.1705,0.185,0.0837396284271
35120000,89.5904545347,139.786416011,64.4924737965,0.789,0.1885,0.607,0.009,0.1835,0.1925,0.0494542464115,0.009,0.1835,0.1925,0.0494542464115,0.009,0.1835,0.1925,0.0494542464115,0.009,0.1835,0.1925,0.0494542464115,0.009,0.1835,0.1925,0.0494542464115,0.009,0.1835,0.1925,0.0494542464115
35120000,90.0699255007,140.394192514,64.9077919938,0.769,0.1925,0.5775,0.01,0.1845,0.1945,0.0552183323922,0.01,0.1845,0.1945,0.0552183323922,0.01,0.1845,0.1945,0.0552183323922,0.01,0.1845,0.1945,0.0552183323922,0.01,0.1845,0.1945,0.0552183323922,0.01,0.1845,0.1945,0.0552183323922
35120000,90.072840703,137.820590445,66.198965832,0.769,0.189,0.5805,0.0205,0.148,0.1685,0.177405936455,0.0205,0.148,0.1685,0.177405936455,0.0205,0.148,0.1685,0.177405936455,0.0205,0.148,0.1685,0.177405936455,0.0205,0.148,0.1685,0.177405936455,0.0205,0.148,0.1685,0.177405936455
35120000,90.211690738,138.338840461,66.1481158765,0.7695,0.199,0.574,0.01,0.1945,0.2045,0.0511548913043,0.01,0.1945,0.2045,0.0511548913043,0.01,0.1945,0.2045,0.0511548913043,0.01,0.1945,0.2045,0.0511548913043,0.01,0.1945,0.2045,0.0511548913043,0.01,0.1945,0.2045,0.0511548913043
35120000,90.2587786555,140.284341099,65.2459974336,0.736,0.194,0.5465,0.012,0.1805,0.1925,0.0654622229327,0.012,0.1805,0.1925,0.0654622229327,0.012,0.1805,0.1925,0.0654622229327,0.012,0.1805,0.1925,0.0654622229327,0.012,0.1805,0.1925,0.0654622229327,0.012,0.1805,0.1925,0.0654622229327
35120000,90.3314084361,138.921631223,66.0362970427,0.768,0.194,0.576,0.013,0.1885,0.2015,0.0697669631094,0.013,0.1885,0.2015,0.0697669631094,0.013,0.1885,0.2015,0.0697669631094,0.013,0.1885,0.2015,0.0697669631094,0.013,0.1885,0.2015,0.0697669631094,0.013,0.1885,0.2015,0.0697669631094
35120000,90.4108484049,140.583536648,65.3245042835,0.7705,0.1955,0.579,0.026,0.1925,0.2185,0.134849481659,0.026,0.1925,0.2185,0.134849481659,0.026,0.1925,0.2185,0.134849481659,0.026,0.1925,0.2185,0.134849481659,0.026,0.1925,0.2185,0.134849481659,0.026,0.1925,0.2185,0.134849481659
35120000,90.5565125508,139.416135072,66.1267012901,0.746,0.1845,0.5515,0.012,0.1705,0.1825,0.0721435041408,0.012,0.1705,0.1825,0.0721435041408,0.012,0.1705,0.1825,0.0721435041408,0.012,0.1705,0.1825,0.0721435041408,0.012,0.1705,0.1825,0.0721435041408,0.012,0.1705,0.1825,0.0721435041408
35120000,91.3184469981,142.391515577,65.7819127089,0.8065,0.2295,0.6015,0.02,0.2055,0.2255,0.0986398511974,0.02,0.2055,0.2255,0.0986398511974,0.02,0.2055,0.2255,0.0986398511974,0.02,0.2015,0.2215,0.100018527668,0.02,0.2015,0.2215,0.100018527668,0.02,0.2015,0.2215,0.100018527668
35120000,91.4037459345,142.282382378,65.9644277127,0.7705,0.1975,0.5885,0.013,0.1865,0.1995,0.0721439066895,0.013,0.1865,0.1995,0.0721439066895,0.013,0.1865,0.1995,0.0721439066895,0.013,0.1865,0.1995,0.0721439066895,0.013,0.1865,0.1995,0.0721439066895,0.013,0.1785,0.1915,0.0762846934389
35120000,91.6779574457,141.962893827,66.5354892552,0.7735,0.195,0.5855,0.0135,0.192,0.2055,0.0703693181818,0.0135,0.192,0.2055,0.0703693181818,0.0135,0.192,0.2055,0.0703693181818,0.0135,0.192,0.2055,0.0703693181818,0.0135,0.192,0.2055,0.0703693181818,0.0135,0.192,0.2055,0.0703693181818
35120000,91.8261900946,142.055269021,66.7116506313,0.765,0.188,0.576,0.018,0.174,0.192,0.102684268678,0.018,0.174,0.192,0.102684268678,0.018,0.174,0.192,0.102684268678,0.018,0.174,0.192,0.102684268678,0.018,0.174,0.192,0.102684268678,0.018,0.174,0.192,0.102684268678
35120000,91.8901595212,142.853367748,66.408555408,0.7615,0.188,0.575,0.011,0.1875,0.1985,0.0590003293808,0.011,0.1875,0.1985,0.0590003293808,0.011,0.1875,0.1985,0.0590003293808,0.011,0.1875,0.1985,0.0590003293808,0.011,0.1875,0.1985,0.0590003293808,0.011,0.1875,0.1985,0.0590003293808
35120000,92.0062619888,142.811708377,66.6035387949,0.7835,0.216,0.5855,0.022,0.216,0.238,0.10423951049,0.022,0.216,0.238,0.10423951049,0.022,0.216,0.238,0.10423951049,0.022,0.216,0.238,0.10423951049,0.018,0.216,0.234,0.0834061771562,0.018,0.216,0.234,0.0834061771562
35120000,92.068837156,142.756456721,66.7250273736,0.7675,0.2255,0.548,0.0205,0.2225,0.243,0.0993741765481,0.0205,0.2225,0.243,0.0993741765481,0.0205,0.2225,0.243,0.0993741765481,0.0125,0.2225,0.235,0.0577075098814,0.0125,0.2225,0.235,0.0577075098814,0.0125,0.2225,0.235,0.0577075098814
35120000,92.1187030956,143.207295498,66.5744068942,0.7765,0.1955,0.5825,0.011,0.1915,0.2025,0.0586548913043,0.011,0.1915,0.2025,0.0586548913043,0.011,0.1915,0.2025,0.0586548913043,0.011,0.1915,0.2025,0.0586548913043,0.011,0.1915,0.2025,0.0586548913043,0.011,0.1915,0.2025,0.0586548913043
35120000,92.1490812639,141.7964662,67.325388796,0.775,0.185,0.5845,0.011,0.1785,0.1895,0.0614192193676,0.011,0.1785,0.1895,0.0614192193676,0.011,0.1785,0.1895,0.0614192193676,0.011,0.1785,0.1895,0.0614192193676,0.011,0.1785,0.1895,0.0614192193676,0.011,0.1785,0.1895,0.0614192193676
35120000,92.5957590129,143.831559077,66.9778589812,0.7865,0.368,0.563,0.0085,0.367,0.3755,0.0274702380952,0.0085,0.367,0.3755,0.0274702380952,0.0085,0.367,0.3755,0.0274702380952,0.0085,0.367,0.3755,0.0274702380952,0.0085,0.367,0.3755,0.0274702380952,0.0085,0.367,0.3755,0.0274702380952
35120000,93.0210331067,145.840164679,66.6114673206,0.799,0.1835,0.613,0.01,0.179,0.189,0.0558535667231,0.01,0.179,0.189,0.0558535667231,0.0085,0.179,0.1875,0.0477013928101,0.0085,0.179,0.1875,0.0477013928101,0.0085,0.179,0.1875,0.0477013928101,0.0085,0.179,0.1875,0.0477013928101
35120000,93.15068849,145.1976388,67.1272133351,0.791,0.191,0.5985,0.0105,0.169,0.1795,0.0654198232323,0.0105,0.169,0.1795,0.0654198232323,0.0105,0.169,0.1795,0.0654198232323,0.0105,0.169,0.1795,0.0654198232323,0.0105,0.169,0.1795,0.0654198232323,0.0105,0.169,0.1795,0.0654198232323
35120000,93.2300866037,143.374338192,68.1579608094,0.7685,0.192,0.5845,0.013,0.19,0.203,0.0682291666667,0.013,0.19,0.203,0.0682291666667,0.013,0.19,0.203,0.0682291666667,0.013,0.19,0.203,0.0682291666667,0.013,0.19,0.203,0.0682291666667,0.013,0.19,0.203,0.0682291666667
35120000,93.497032464,144.642501797,67.9242977973,0.7345,0.1835,0.5565,0.013,0.1815,0.1945,0.0729166666667,0.012,0.1815,0.1935,0.0672348484848,0.012,0.1815,0.1935,0.0672348484848,0.012,0.1815,0.1935,0.0672348484848,0.012,0.1815,0.1935,0.0672348484848,0.012,0.1815,0.1935,0.0672348484848
35120000,93.5751218201,144.906312263,67.9095265987,0.751,0.179,0.5715,0.0205,0.17,0.1905,0.11992666944,0.0205,0.17,0.1905,0.11992666944,0.0205,0.17,0.1905,0.11992666944,0.0165,0.17,0.1865,0.0971993967131,0.0165,0.17,0.1865,0.0971993967131,0.0165,0.17,0.1865,0.0971993967131
35120000,93.6725128251,145.005323804,68.0061073355,0.77,0.1845,0.4945,0.0095,0.171,0.1805,0.0545481601732,0.0095,0.171,0.1805,0.0545481601732,0.0095,0.171,0.1805,0.0545481601732,0.0095,0.171,0.1805,0.0545481601732,0.0095,0.171,0.1805,0.0545481601732,0.0095,0.171,0.1805,0.0545481601732
35120000,93.7178372415,143.392124255,68.8806937349,0.7625,0.1895,0.5755,0.021,0.1815,0.2025,0.114531867589,0.021,0.1815,0.2025,0.114531867589,0.021,0.1815,0.2025,0.114531867589,0.021,0.1815,0.2025,0.114531867589,0.021,0.1815,0.2025,0.114531867589,0.021,0.1815,0.2025,0.114531867589
35120000,93.7331416957,146.296040358,67.4516923643,0.778,0.1885,0.5915,0.0205,0.181,0.2015,0.115159749671,0.0205,0.173,0.1935,0.117243083004,0.0205,0.173,0.1935,0.117243083004,0.0205,0.173,0.1935,0.117243083004,0.0205,0.173,0.1935,0.117243083004,0.0205,0.173,0.1935,0.117243083004
35120000,93.9256409304,145.828645857,67.9741384672,0.7575,0.185,0.5705,0.035,0.1615,0.1965,0.225471348827,0.035,0.1615,0.1965,0.225471348827,0.035,0.1615,0.1965,0.225471348827,0.035,0.1615,0.1965,0.225471348827,0.035,0.1615,0.1965,0.225471348827,0.035,0.1615,0.1965,0.225471348827
35120000,94.1010233019,146.523092158,67.8899888738,0.7955,0.178,0.617,0.028,0.163,0.191,0.189209695098,0.028,0.163,0.191,0.189209695098,0.028,0.163,0.191,0.189209695098,0.028,0.163,0.191,0.189209695098,0.028,0.163,0.191,0.189209695098,0.028,0.163,0.191,0.189209695098
35120000,94.2306363521,144.632336509,69.0297862736,0.7335,0.1915,0.5435,0.013,0.1865,0.1995,0.0700963438735,0.013,0.1865,0.1995,0.0700963438735,0.013,0.1865,0.1995,0.0700963438735,0.013,0.1865,0.1995,0.0700963438735,0.013,0.1865,0.1995,0.0700963438735,0.013,0.1865,0.1995,0.0700963438735
35120000,94.3417829218,145.791076822,68.6171359718,0.759,0.18,0.553,0.01,0.175,0.185,0.0574604743083,0.01,0.175,0.185,0.0574604743083,0.01,0.175,0.185,0.0574604743083,0.01,0.175,0.185,0.0574604743083,0.01,0.175,0.185,0.0574604743083,0.01,0.175,0.185,0.0574604743083
35120000,94.4552467049,145.845012482,68.7603638163,0.77,0.176,0.581,0.0115,0.1695,0.181,0.0683776201868,0.0115,0.1695,0.181,0.0683776201868,0.0115,0.1695,0.181,0.0683776201868,0.0115,0.1695,0.181,0.0683776201868,0.0115,0.1695,0.181,0.0683776201868,0.0115,0.1695,0.181,0.0683776201868
35120000,94.4572116148,146.653693523,68.3589706607,0.761,0.194,0.568,0.0095,0.184,0.1935,0.0510696640316,0.0095,0.184,0.1935,0.0510696640316,0.0095,0.184,0.1935,0.0510696640316,0.0095,0.184,0.1935,0.0510696640316,0.0095,0.184,0.1935,0.0510696640316,0.0095,0.184,0.1935,0.0510696640316
35120000,94.5876788398,145.679227536,69.0419044917,0.7655,0.1855,0.5725,0.0245,0.1785,0.203,0.139142786561,0.0245,0.1785,0.203,0.139142786561,0.0245,0.1785,0.203,0.139142786561,0.0245,0.1785,0.203,0.139142786561,0.0245,0.1785,0.203,0.139142786561,0.0245,0.1785,0.203,0.139142786561
35120000,94.9388958813,148.374791412,68.2209481161,0.772,0.193,0.5795,0.014,0.178,0.192,0.0781723484848,0.014,0.178,0.192,0.0781723484848,0.014,0.178,0.192,0.0781723484848,0.014,0.178,0.192,0.0781723484848,0.014,0.178,0.192,0.0781723484848,0.014,0.178,0.192,0.0781723484848
35120000,94.9856582314,146.614527022,69.1712238358,0.7775,0.1865,0.586,0.0285,0.164,0.1925,0.185213940649,0.0285,0.164,0.1925,0.185213940649,0.0285,0.164,0.1925,0.185213940649,0.0285,0.164,0.1925,0.185213940649,0.0285,0.164,0.1925,0.185213940649,0.0285,0.164,0.1925,0.185213940649
35120000,95.1449785824,146.469082746,69.4829265005,0.756,0.1905,0.5695,0.026,0.1855,0.2115,0.141333168643,0.026,0.1855,0.2115,0.141333168643,0.026,0.1855,0.2115,0.141333168643,0.024,0.1855,0.2095,0.129969532279,0.024,0.1855,0.2095,0.129969532279,0.024,0.1855,0.2095,0.129969532279
35120000,95.1601926795,147.071010799,69.2047836197,0.774,0.1875,0.585,0.02,0.1805,0.2005,0.113386529465,0.02,0.1805,0.2005,0.113386529465,0.02,0.1805,0.2005,0.113386529465,0.02,0.1805,0.2005,0.113386529465,0.02,0.1805,0.2005,0.113386529465,0.02,0.1805,0.2005,0.113386529465
35120000,95.4101116174,148.211741611,69.0092966205,0.7685,0.1825,0.5895,0.02,0.169,0.189,0.120602766798,0.02,0.169,0.189,0.120602766798,0.0195,0.169,0.1885,0.117761857708,0.0195,0.169,0.1885,0.117761857708,0.0195,0.169,0.1885,0.117761857708,0.0195,0.169,0.1885,0.117761857708
35120000,95.7486679731,148.285309837,69.4803470411,0.769,0.161,0.6,0.0165,0.1395,0.156,0.120957619578,0.0165,0.1395,0.156,0.120957619578,0.0165,0.1395,0.156,0.120957619578,0.0165,0.1395,0.156,0.120957619578,0.0165,0.1395,0.156,0.120957619578,0.0165,0.1395,0.156,0.120957619578
35120000,96.1226983106,148.915102207,69.7264963626,0.724,0.1945,0.5305,0.022,0.19,0.212,0.118712121212,0.022,0.19,0.212,0.118712121212,0.022,0.19,0.212,0.118712121212,0.022,0.19,0.212,0.118712121212,0.022,0.19,0.212,0.118712121212,0.022,0.19,0.212,0.118712121212
35120000,96.4090065951,143.995434845,72.6157924702,0.6895,0.186,0.515,0.008,0.172,0.18,0.0465485601355,0.008,0.172,0.18,0.0465485601355,0.008,0.172,0.18,0.0465485601355,0.008,0.172,0.18,0.0465485601355,0.008,0.172,0.18,0.0465485601355,0.008,0.172,0.18,0.0465485601355
35120000,96.9628427636,149.763339886,70.5625942026,0.7655,0.1765,0.5885,0.008,0.1685,0.1765,0.047715524607,0.008,0.1685,0.1765,0.047715524607,0.008,0.1685,0.1765,0.047715524607,0.008,0.1685,0.1765,0.047715524607,0.008,0.1685,0.1765,0.047715524607,0.008,0.1685,0.1765,0.047715524607
35120000,96.9860522971,149.632797183,70.662679854,0.753,0.1765,0.5765,0.012,0.1745,0.1865,0.0696828533785,0.012,0.1745,0.1865,0.0696828533785,0.012,0.1745,0.1865,0.0696828533785,0.012,0.1745,0.1865,0.0696828533785,0.012,0.1745,0.1865,0.0696828533785,0.012,0.1745,0.1865,0.0696828533785
35120000,97.0564753915,149.745792447,70.7118168638,0.7485,0.184,0.565,0.015,0.1715,0.1865,0.0881669960474,0.015,0.1715,0.1865,0.0881669960474,0.015,0.1715,0.1865,0.0881669960474,0.015,0.1715,0.1865,0.0881669960474,0.015,0.1715,0.1865,0.0881669960474,0.015,0.1715,0.1865,0.0881669960474
35120000,97.8979729002,149.783391205,71.9552637477,0.729,0.1855,0.5445,0.026,0.1805,0.2065,0.146639526806,0.026,0.1805,0.2065,0.146639526806,0.026,0.1805,0.2065,0.146639526806,0.026,0.1805,0.2065,0.146639526806,0.026,0.1805,0.2065,0.146639526806,0.026,0.1805,0.2065,0.146639526806
35120000,98.5982382391,150.104928948,72.8448928848,0.748,0.182,0.5655,0.022,0.176,0.198,0.125512304724,0.022,0.176,0.198,0.125512304724,0.022,0.176,0.198,0.125512304724,0.022,0.176,0.198,0.125512304724,0.022,0.176,0.198,0.125512304724,0.022,0.176,0.198,0.125512304724
35200000,84.1920027667,122.077570009,65.2492191457,0.667,0.198,0.496,0.0125,0.194,0.2065,0.0649742562929,0.0125,0.194,0.2065,0.0649742562929,0.0125,0.194,0.2065,0.0649742562929,0.0125,0.194,0.2065,0.0649742562929,0.0125,0.194,0.2065,0.0649742562929,0.0125,0.194,0.2065,0.0649742562929
35200000,86.3037860731,123.086272761,67.9125427293,0.681,0.2015,0.4855,0.0255,0.1995,0.225,0.127414994426,0.0255,0.1995,0.225,0.127414994426,0.0255,0.1995,0.225,0.127414994426,0.0255,0.1995,0.225,0.127414994426,0.0255,0.1995,0.225,0.127414994426,0.0255,0.1995,0.225,0.127414994426
35200000,88.0548604271,137.908042412,63.1282694348,0.811,0.1995,0.6135,0.0225,0.1935,0.216,0.116770833333,0.0225,0.1935,0.216,0.116770833333,0.0225,0.1935,0.216,0.116770833333,0.0225,0.1935,0.216,0.116770833333,0.0225,0.1935,0.216,0.116770833333,0.0225,0.1935,0.216,0.116770833333
35200000,89.8132923944,138.862007165,65.2889350094,0.755,0.1985,0.553,0.016,0.1945,0.2105,0.083720735786,0.016,0.1945,0.2105,0.083720735786,0.016,0.1945,0.2105,0.083720735786,0.016,0.1945,0.2105,0.083720735786,0.016,0.1945,0.2105,0.083720735786,0.016,0.1945,0.2105,0.083720735786
35200000,90.2025538523,137.382819859,66.6124208491,0.752,0.192,0.56,0.008,0.16,0.168,0.05,0.008,0.16,0.168,0.05,0.008,0.16,0.168,0.05,0.008,0.16,0.168,0.05,0.008,0.16,0.168,0.05,0.008,0.16,0.168,0.05
35200000,90.3507717046,141.014127339,65.0190938874,0.79,0.1985,0.5925,0.0145,0.1825,0.197,0.0789480085132,0.0145,0.1825,0.197,0.0789480085132,0.0145,0.1825,0.197,0.0789480085132,0.0145,0.1825,0.197,0.0789480085132,0.0145,0.1825,0.197,0.0789480085132,0.0145,0.1805,0.195,0.0809242930982
35200000,90.5590689001,138.020585075,66.8283108127,0.772,0.201,0.5825,0.011,0.1875,0.1985,0.0577156177156,0.011,0.1875,0.1985,0.0577156177156,0.011,0.1875,0.1985,0.0577156177156,0.011,0.1875,0.1985,0.0577156177156,0.011,0.1875,0.1985,0.0577156177156,0.011,0.1875,0.1985,0.0577156177156
35200000,91.8065826453,141.67169253,66.8740277027,0.7655,0.201,0.573,0.01,0.201,0.211,0.0500320512821,0.01,0.201,0.211,0.0500320512821,0.01,0.201,0.211,0.0500320512821,0.01,0.201,0.211,0.0500320512821,0.01,0.201,0.211,0.0500320512821,0.01,0.201,0.211,0.0500320512821
35200000,92.2063528801,143.937479441,66.3407895996,0.807,0.192,0.6115,0.0105,0.178,0.1885,0.0590841450216,0.0105,0.178,0.1885,0.0590841450216,0.0105,0.178,0.1885,0.0590841450216,0.0105,0.178,0.1885,0.0590841450216,0.0105,0.178,0.1885,0.0590841450216,0.0105,0.178,0.1885,0.0590841450216
35200000,92.5283046788,142.297876144,67.6435189464,0.7565,0.196,0.568,0.0305,0.192,0.2225,0.158854166667,0.0305,0.192,0.2225,0.158854166667,0.0305,0.192,0.2225,0.158854166667,0.0305,0.192,0.2225,0.158854166667,0.0305,0.192,0.2225,0.158854166667,0.0305,0.192,0.2225,0.158854166667
35200000,92.7529360659,142.361665691,67.9485712532,0.7675,0.197,0.5695,0.0205,0.197,0.2175,0.102564102564,0.0205,0.197,0.2175,0.102564102564,0.0205,0.197,0.2175,0.102564102564,0.0205,0.197,0.2175,0.102564102564,0.0185,0.197,0.2155,0.0921474358974,0.0185,0.197,0.2155,0.0921474358974
35200000,92.8584405932,143.093872938,67.7407244209,0.768,0.1955,0.568,0.026,0.1925,0.2185,0.141288377193,0.026,0.1925,0.2185,0.141288377193,0.026,0.1925,0.2185,0.141288377193,0.026,0.1925,0.2185,0.141288377193,0.026,0.1925,0.2185,0.141288377193,0.026,0.1925,0.2185,0.141288377193
35200000,93.0996214856,146.16115495,66.5688547532,0.821,0.2025,0.6185,0.0085,0.1965,0.205,0.0441520979021,0.0085,0.1965,0.205,0.0441520979021,0.0085,0.1955,0.204,0.0443444055944,0.0085,0.1955,0.204,0.0443444055944,0.0085,0.1955,0.204,0.0443444055944,0.0085,0.1955,0.204,0.0443444055944
35200000,93.3726746709,143.528929247,68.294547383,0.791,0.1955,0.597,0.012,0.1795,0.1915,0.0651041666667,0.012,0.1795,0.1915,0.0651041666667,0.012,0.1795,0.1915,0.0651041666667,0.012,0.1795,0.1915,0.0651041666667,0.012,0.1795,0.1915,0.0651041666667,0.012,0.1795,0.1915,0.0651041666667
35200000,93.4605270637,143.315500434,68.5330403786,0.7505,0.2045,0.555,0.02,0.201,0.221,0.0975560897436,0.02,0.201,0.221,0.0975560897436,0.02,0.201,0.221,0.0975560897436,0.02,0.201,0.221,0.0975560897436,0.02,0.201,0.221,0.0975560897436,0.02,0.201,0.221,0.0975560897436
35200000,94.6264737558,144.10736116,69.8860300539,0.7405,0.2005,0.5485,0.014,0.193,0.207,0.0728205128205,0.014,0.193,0.207,0.0728205128205,0.014,0.193,0.207,0.0728205128205,0.014,0.193,0.207,0.0728205128205,0.014,0.193,0.207,0.0728205128205,0.014,0.193,0.207,0.0728205128205
35200000,94.7092853028,146.789881042,68.6689874329,0.7995,0.191,0.5985,0.008,0.1895,0.1975,0.0422690217391,0.008,0.1895,0.1975,0.0422690217391,0.008,0.1895,0.1975,0.0422690217391,0.008,0.1895,0.1975,0.0422690217391,0.008,0.1895,0.1975,0.0422690217391,0.008,0.1895,0.1975,0.0422690217391
35200000,94.82494536,145.875049472,69.2998933038,0.7605,0.2015,0.559,0.012,0.1795,0.1915,0.067257018344,0.012,0.1795,0.1915,0.067257018344,0.012,0.1795,0.1915,0.067257018344,0.012,0.1795,0.1915,0.067257018344,0.012,0.1795,0.1915,0.067257018344,0.012,0.1795,0.1915,0.067257018344
35200000,95.054686679,146.748129658,69.2079651896,0.7635,0.1945,0.527,0.009,0.1875,0.1965,0.0482246376812,0.009,0.1875,0.1965,0.0482246376812,0.009,0.1875,0.1965,0.0482246376812,0.009,0.1875,0.1965,0.0482246376812,0.009,0.1875,0.1965,0.0482246376812,0.009,0.1875,0.1965,0.0482246376812
35200000,95.5067801448,146.200614024,70.1598632054,0.7585,0.201,0.5495,0.019,0.201,0.22,0.0938862179487,0.019,0.201,0.22,0.0938862179487,0.019,0.201,0.22,0.0938862179487,0.017,0.201,0.218,0.0842708333333,0.017,0.201,0.218,0.0842708333333,0.017,0.201,0.218,0.0842708333333
35200000,95.9736270335,148.114969003,69.902956049,0.782,0.2045,0.5875,0.026,0.2,0.226,0.129679487179,0.026,0.2,0.226,0.129679487179,0.026,0.2,0.226,0.129679487179,0.026,0.2,0.226,0.129679487179,0.026,0.198,0.224,0.130512820513,0.026,0.198,0.224,0.130512820513
35200000,96.017637637,146.774695802,70.6391085545,0.763,0.1935,0.5625,0.0205,0.1735,0.194,0.118716120836,0.0205,0.1735,0.194,0.118716120836,0.0205,0.1735,0.194,0.118716120836,0.0205,0.1725,0.193,0.119951298701,0.0205,0.1725,0.193,0.119951298701,0.0205,0.1725,0.193,0.119951298701
35200000,96.1280439788,144.803066863,71.7905325367,0.734,0.202,0.538,0.022,0.19,0.212,0.114253246753,0.022,0.19,0.212,0.114253246753,0.022,0.19,0.212,0.114253246753,0.022,0.19,0.212,0.114253246753,0.022,0.19,0.212,0.114253246753,0.022,0.19,0.212,0.114253246753
35200000,96.4636968932,146.711163652,71.3399635136,0.763,0.205,0.5575,0.016,0.2035,0.2195,0.0780058528428,0.016,0.2035,0.2195,0.0780058528428,0.016,0.2035,0.2195,0.0780058528428,0.016,0.2035,0.2195,0.0780058528428,0.016,0.2035,0.2195,0.0780058528428,0.016,0.2025,0.2185,0.0784225195095
35200000,96.7212016576,148.020460174,71.0715723994,0.747,0.212,0.5405,0.011,0.2015,0.2125,0.0554211229947,0.011,0.2005,0.2115,0.0556439393939,0.011,0.2005,0.2115,0.0556439393939,0.011,0.1965,0.2075,0.0564772727273,0.011,0.1965,0.2075,0.0564772727273,0.011,0.1965,0.2075,0.0564772727273
35200000,97.1425391445,148.032093214,71.6977621095,0.7425,0.1965,0.5465,0.028,0.1885,0.2165,0.149600625823,0.028,0.1885,0.2165,0.149600625823,0.028,0.1885,0.2165,0.149600625823,0.028,0.1885,0.2165,0.149600625823,0.028,0.1885,0.2165,0.149600625823,0.028,0.1885,0.2165,0.149600625823
35200000,97.4546467638,147.879015494,72.2424623985,0.7435,0.202,0.5435,0.0185,0.2005,0.219,0.0916684402554,0.0185,0.2005,0.219,0.0916684402554,0.0185,0.2005,0.219,0.0916684402554,0.0185,0.2005,0.219,0.0916684402554,0.0185,0.2005,0.219,0.0916684402554,0.0185,0.2005,0.219,0.0916684402554
